	x	y	theta	v	a	sigma	omega	t
0	8.555	11.375	-1.393638761986059	0.0	1.0000001301756676	-1.4848877786331494	0.0	0.0
1	8.555170295657577	11.374043374712675	-1.3985520621875658	0.044077766737346556	0.9995066904771429	-1.4848877786331494	0.6852758233203016	0.04408501233550939
2	8.555669748205666	11.371172431606814	-1.40633253380804	0.08811203404049466	0.9980268583469777	-1.4546773855088475	0.3926207716560975	0.08817002467101878
3	8.556464423817886	11.366384157181846	-1.417815841752996	0.1320593454039356	0.9955620942008222	-1.4373686939472112	0.29694688721722823	0.1322550370065282
4	8.557498988758642	11.359674270823056	-1.4327722850702431	0.17587633013717496	0.9921148304633142	-1.4242777867612486	0.2714080054873536	0.17634004934203756
5	8.558698572949112	11.351038406597247	-1.450889204547364	0.21951974616636769	0.9876884691675695	-1.4123127614913826	0.2816507479215364	0.22042506167754694
6	8.559971465045674	11.340473681253203	-1.471768930899588	0.2629465227090246	0.9822873785977861	-1.3998961847949563	0.31691604121870254	0.2645100740130563
7	8.561212695137025	11.327980470845851	-1.4949301171044007	0.3061138027796742	0.9759168889782752	-1.385924937208509	0.37516610315182636	0.3085950863485657
8	8.562308508747444	11.313564165841024	-1.519814028490337	0.34897898548453393	0.9685832872131729	-1.3693857349231957	0.459245830235021	0.35268009868407507
9	8.563141645364441	11.297236642534585	-1.5457965411487173	0.3914997680634483	0.9602938106820254	-1.3491398768322536	0.5765388403793186	0.39676511101958445
10	8.563597222599908	11.279017193469612	-1.5722053551378232	0.4336341876376063	0.9510566400973685	-1.323723154942231	0.740733606383678	0.4408501233550938
11	8.56356892297887	11.258932712946976	-1.5983405428706725	0.47534066262183655	0.9408808914313523	-1.2910679047674802	0.976325888395081	0.4849351356906032
12	8.562965120097347	11.237017034764584	-1.6234954260161536	0.5165780337606115	0.9297766069193781	-1.2480265659341059	1.3284420857585468	0.5290201480261126
13	8.561714593886629	11.21330945032669	-1.6469742698022682	0.5573056047472634	0.9177547451496231	-1.1894621801964305	1.8844806292896754	0.5731051603616221
14	8.559771580837332	11.18785256567206	-1.668103552567918	0.5974831823863259	0.9048271702482372	-1.1063848284081665	2.822126777173955	0.6171901726971315
15	8.55712006890339	11.160689753882616	-1.6862344684101715	0.6370711162593651	0.8910066401708842	-0.9819713346240813	4.500390483008193	0.6612751850326409
16	8.553777443792526	11.13186250531932	-1.700735488816132	0.6760303378551558	0.8763067941121777	-0.7835715646660558	7.44303612017843	0.7053601973681504
17	8.549797784460086	11.101407973753645	-1.7109748435187946	0.7143223991255849	0.8607421390454448	-0.45544522549434746	10.974919705298623	0.7494452097036598
18	8.54527526278511	11.069356983632407	-1.7162934268993857	0.7519095104292335	0.8443280354060931	0.02838424509496787	11.0539865643406	0.7935302220391692
19	8.540348215722013	11.03573273724008	-1.7159688986187103	0.7887545778251902	0.8270806819327171	0.5156993791404787	7.569125748690199	0.8376152343746787
20	8.535204531608576	11.000550480237605	-1.709171937803406	0.8248212396802922	0.8090170996808973	0.8493843811405082	4.599939251481501	0.8817002467101881
21	8.530089028321948	10.963818492086746	-1.6949164248179416	0.8600739025536679	0.7901551152254743	1.0521727597846642	-5.093763045935345	0.9257852590456975
22	8.52531347480811	10.925541012238156	-1.6720080767389545	0.8944777763231654	0.7705133430678714	0.8276141530704424	-20.901349176662315	0.969870271381207
23	8.521269723490047	10.885724152402455	-1.6572110482241398	0.9279989085190025	0.7501111672658295	-0.09382208321150341	-0.9169075531910664	1.0139552837167163
24	8.517798312371053	10.845652671162302	-1.6585385112523403	0.9606042178307558	0.7289687223036813	-0.13424396400445335	-0.894660078232207	1.0580402960522257
25	8.514025887463964	10.802768634858928	-1.6605107165578057	0.9922615267546198	0.7071068732220471	-0.17368506458940802	-0.9056787508052335	1.1021253083877351
26	8.510045769064815	10.758523397797237	-1.6631572637738186	1.0229395933487184	0.6845471950265585	-0.21361192349066552	-0.9120732414640147	1.1462103207232446
27	8.505825854245701	10.712964000726414	-1.666530488850208	1.0526081420651299	0.6613119513959325	-0.2538206835914947	-0.913642449379946	1.190295333058754
28	8.501329400431624	10.666139454437978	-1.6706815196851312	1.081237893628197	0.6374240727104085	-0.29409862224265465	-0.9102753971139586	1.2343803453942634
29	8.496515029970274	10.618100815392518	-1.6756598937232632	1.1088005939296377	0.6129071334222317	-0.33422812435313426	-0.9019532118911233	1.2784653577297729
30	8.49133679689512	10.568901282015325	-1.681513130443477	1.135269041911938	0.5877853287905147	-0.3739907428254068	-0.8887464784139103	1.3225503700652823
31	8.485744321479832	10.51859631214264	-1.688286249633027	1.160617116412513	0.5620834510034378	-0.4131711422894246	-0.07652367926593771	1.3666353824007917
32	8.47968299858715	10.467243761059093	-1.6960212266727295	1.1848198019421394	0.5358268647113529	-0.416544689633822	2.1147143930453502	1.4107203947363012
33	8.473094286179746	10.414904038280218	-1.703990051487401	1.2078532133722242	0.5090414819949353	-0.3233174795303384	-0.04526540267415348	1.4548054070718106
34	8.465962689511942	10.361678003326514	-1.7101425215233994	1.229694619506542	0.4817537367930888	-0.32531300536560026	-0.25195791840707427	1.49889041940732
35	8.458369098095336	10.307536743716456	-1.7164477650326426	1.2503224655141825	0.4539905588158393	-0.3364205733066054	-0.25230373421371505	1.5429754317428295
36	8.450306067677584	10.252570363577037	-1.7230948129492398	1.2697163942015652	0.4257793469679628	-0.34754338654171213	-0.2520013360611705	1.587060444078339
37	8.44175211234512	10.196839560142045	-1.7300868631412218	1.287857266102532	0.3971479423095734	-0.3586528685505337	-0.25103249918443676	1.6311454564138483
38	8.432686018200087	10.140406297431605	-1.7374258537923626	1.30472717836669	0.3681246005803586	-0.36971963937369334	-0.24938165387048128	1.6752304687493578
39	8.423087042434194	10.083333752978437	-1.7451123771561015	1.320309482427363	0.33873796431457637	-0.38071363266082325	-0.24385884042110165	1.7193154810848672
40	8.412935124080413	10.02568625727021	-1.753145597409062	1.3345888004317163	0.3090170345743305	-0.39146415264891055	0.28756508695327937	1.7634004934203766
41	8.402211104966458	9.967529224983956	-1.7615198475902227	1.3475510404168427	0.27899114232902444	-0.3787868422433134	0.2920818350775478	1.807485505755886
42	8.390898845422186	9.908937799919102	-1.769673056770866	1.359183410216826	0.24868991950923622	-0.36591041094094146	-0.04965594499156301	1.8515705180913955
43	8.379014713689454	9.849971440061887	-1.7775900037542527	1.369474430087066	0.21814326976357906	-0.3680994938884259	-0.04837299241416132	1.895655530426905
44	8.366576690928566	9.790684245697516	-1.785619201668757	1.3784139440334007	0.1873813389474116	-0.3702320178557097	-0.04693273809324507	1.9397405427624144
45	8.35358498921165	9.731141083097281	-1.7937521864460195	1.3859931298348447	0.15643448537251764	-0.37230104819348964	-0.04534156024729092	1.9838255550979238
46	8.340041773225698	9.671407013795442	-1.8019800912340906	1.392204507750058	0.12533324984711874	-0.3742999314363027	-0.043606684424536704	2.027910567433433
47	8.325951226083156	9.611547184567417	-1.8102936634183082	1.3970419478989473	0.09410832553578136	-0.37622233265706906	-0.04347919672144216	2.0719955797689424
48	8.311319606089798	9.55162671532203	-1.818683284877134	1.4005006763121157	0.06279052766897196	-0.3781391135808719	-0.46851580276538357	2.116080592104452
49	8.296155293746963	9.49171058544634	-1.827140889460148	1.4025772796421974	0.031410763132142756	-0.3987936385251649	-0.0401920905893593	2.1601656044399613
50	8.280471152709902	9.431872849288713	-1.8361252129204608	1.4032697085324164	0.0	-0.40056550733458673	0.4177384677316506	2.2042506167754707
51	8.264251422414473	9.37218348697679	-1.8451585139693973	1.4025772796421971	-0.03141076313214485	-0.3821495018316201	0.42355918596523373	2.24833562911098
52	8.247509039233897	9.312699460226536	-1.853727819768714	1.4005006763121155	-0.06279052766897404	-0.36347688989352445	0.4282581544798668	2.2924206414464896
53	8.23029102720611	9.253476268507542	-1.8618260698139137	1.3970419478989469	-0.09410832553578366	-0.344597123870497	0.431846689159508	2.336505653781999
54	8.212645973289893	9.194568030605465	-1.869448567335722	1.3922045077500578	-0.12533324984712083	-0.3255591572518512	0.43434508126165733	2.3805906661175085
55	8.194623685348926	9.136027525822373	-1.8765928809307788	1.3859931298348442	-0.15643448537251994	-0.3064110489865632	0.43126335547814865	2.424675678453018
56	8.17627485903384	9.07790624818062	-1.8832587373896177	1.3784139440334	-0.18738133894741388	-0.2873987986404558	-1.4404822957314816	2.4687606907885273
57	8.157650756118345	9.020254470923625	-1.8894524466258382	1.3694744300870654	-0.2181432697635813	-0.3509024784168611	-0.750174707780132	2.5128457031240368
58	8.138804468563176	8.963126955702325	-1.8970730465304542	1.3591834102168252	-0.24868991950923847	-0.3839739396631354	0.875679069833955	2.556930715459546
59	8.1196795031655	8.906606096360218	-1.9054210471233783	1.3475510404168418	-0.2789911423290269	-0.3453696170675581	0.889972798219577	2.6010157277950556
60	8.100260790768699	8.85075711889671	-1.9127913819880806	1.3345888004317155	-0.3090170345743327	-0.3061351552797802	0.9000101514522895	2.645100740130565
61	8.080631970537805	8.795617375474981	-1.9192038551337318	1.3203094824273618	-0.3387379643145786	-0.2664581966509223	0.9057404515624814	2.6891857524660745
62	8.06087450445943	8.741222791924303	-1.924682206033683	1.3047271783666887	-0.3681246005803608	-0.22652861767102042	0.9071770607668777	2.733270764801584
63	8.041067219636108	8.687608215619742	-1.9292536630650554	1.2878572661025307	-0.39714794230957556	-0.18653570575662143	0.904395884176718	2.7773557771370934
64	8.021285909606885	8.634807739558125	-1.9329485499860635	1.2697163942015637	-0.42577934696796493	-0.14666540204650685	0.42519886324943756	2.821440789472603
65	8.001602990067594	8.582854997517675	-1.9357999430995516	1.250322465514181	-0.4539905588158413	-0.1279205049151108	-2.96056658603113	2.8655258018081122
66	7.982087204566734	8.531783426510644	-1.9382446856795525	1.2296946195065404	-0.48175373679309064	-0.2584371193803902	-0.034700104858286215	2.9096108141436217
67	7.962792033754566	8.481657057864263	-1.9431862847822823	1.2078532133722222	-0.5090414819949375	-0.25996687393111123	0.7817183859220201	2.953695826479131
68	7.9436010113678766	8.432526809996094	-1.9480701764642374	1.1848198019421374	-0.535826864711355	-0.22550480924484445	0.7755268705202706	2.9977808388146405
69	7.924553678608935	8.384458449771477	-1.9522020911096494	1.160617116412511	-0.5620834510034399	-0.1913156975914393	0.7660033962293433	3.04186585115015
70	7.905714394357121	8.33748280621774	-1.9556193423297286	1.135269041911936	-0.5877853287905166	-0.15754642841962657	0.753334636482996	3.0859508634856594
71	7.887143482873412	8.29163051440137	-1.9583610078633207	1.1088005939296357	-0.6129071334222335	-0.12433566167750718	0.7377335095680346	3.130035875821169
72	7.8688971270906	8.24693216485043	-1.9604676375873218	1.081237893628195	-0.6374240727104101	-0.0918126708078817	0.7194323647508686	3.1741208881566783
73	7.8510273036761395	8.203418416115378	-1.9619809882048689	1.0526081420651279	-0.661311951395934	-0.060096486133274944	0.6986760060844639	3.2182059004921877
74	7.833581756665332	8.161120071474105	-1.9629437792561293	1.022939593348716	-0.6845471950265604	-0.02929534578651689	0.6809297921044187	3.262290912827697
75	7.81660400690295	8.120068121342658	-1.9633994654285951	0.9922615267546172	-0.7071068732220488	0.0007234524980222814	1.5627998972524049	3.3063759251632066
76	7.800133394899982	8.080293753404012	-1.963388552803939	0.9606042178307532	-0.7289687223036829	0.06961950524632741	0.08483118973666338	3.350460937498716
77	7.784205636833393	8.04182911907368	-1.9623702642964538	0.927998908519	-0.750111167265831	0.07335928929230416	-1.135290965187649	3.3945459498342254
78	7.768872996938759	8.004694730848453	-1.9613335105977654	0.8944777763231628	-0.770513343067873	0.02330997308761425	-1.0874256874318153	3.438630962169735
79	7.754148883610278	7.968929073290511	-1.9610164932966734	0.8600739025536654	-0.7901551152254757	-0.024629201756767156	-1.0331981821888871	3.4827159745052443
80	7.740020221673352	7.934578868486763	-1.9613385756283086	0.8248212396802893	-0.8090170996808989	-0.07017775636359017	-0.9739812244229888	3.5268009868407537
81	7.726479020833328	7.901687041794342	-1.9622199614482982	0.7887545778251872	-0.8270806819327186	-0.11311573065683221	-0.9110613763740066	3.570885999176263
82	7.713522025092635	7.870292892011409	-1.9635820825065784	0.7519095104292306	-0.8443280354060945	-0.1532798826726865	-0.8455727852954619	3.6149710115117726
83	7.701150311334488	7.840432253498785	-1.965347972661522	0.714322399125582	-0.860742139045446	-0.190556969343008	-0.7784511358357912	3.659056023847282
84	7.689368846144136	7.812137653729914	-1.9674426337619597	0.6760303378551529	-0.8763067941121788	-0.22487499726892018	-0.7104040985007206	3.7031410361827914
85	7.678186009673208	7.785438469384131	-1.9697933950496036	0.6370711162593622	-0.8910066401708852	-0.2561931707145209	-0.6418917315762965	3.747226048518301
86	7.667613095166556	7.760361083525116	-1.9723302656778066	0.597483182386323	-0.9048271702482381	-0.28449097561912345	-0.5731080429015348	3.7913110608538103
87	7.657663792609763	7.736929045686732	-1.9749862783112517	0.55730560474726	-0.9177547451496241	-0.3097564507600173	-0.5039522182186553	3.8353960731893197
88	7.648353664772022	7.715163235882114	-1.977697820742407	0.5165780337606082	-0.929776606919379	-0.33197319051669405	-0.433973049469069	3.879481085524829
89	7.639699623676511	7.695082032713865	-1.9804049519776508	0.4753406626218333	-0.9408808914313532	-0.3511048977558166	-0.3622593732296056	3.9235660978603386
90	7.631719415204762	7.676701484943213	-1.9830516992306764	0.43363418763760314	-0.9510566400973691	-0.3670751066932977	-0.2872252736307118	3.967651110195848
91	7.624431119121835	7.660035485117657	-1.985586332616651	0.39149976806344505	-0.960293810682026	-0.3797374364243777	-0.2061826808708278	4.0117361225313575
92	7.617852671296864	7.6450959431957015	-1.9879616149610415	0.3489789854845307	-0.9685832872131735	-0.38882700245393653	-0.11445448359862166	4.055821134866867
93	7.612001414300353	7.631892957571753	-1.990135024913646	0.30611380277967104	-0.9759168889782758	-0.39387272977523613	-0.003402018997484842	4.099906147202376
94	7.606893681904845	7.620434980513009	-1.9920689523838386	0.26294652270902136	-0.9822873785977866	-0.3940227078247059	0.14442058318385181	4.143991159537886
95	7.602544422323014	7.6107289747834805	-1.9937308660991564	0.21951974616636455	-0.9876884691675698	-0.3876559246335443	0.3689382968210712	4.188076171873395
96	7.598966864311767	7.602780558150281	-1.9950934537581708	0.17587633013717183	-0.9921148304633144	-0.37139127526714555	0.7796148993130149	4.232161184208905
97	7.596172229575929	7.596594132538786	-1.9961347357451265	0.13205934540393252	-0.9955620942008224	-0.33702194281398434	0.426630700796094	4.276246196544414
98	7.594169494239725	7.592172994815228	-1.9968381536715896	0.08811203404049098	-0.9980268583469778	-0.3182139231066815	1.3952701719483664	4.3203312088799235
99	7.592965201531895	7.589519426512061	-1.9972793814070302	0.044077766737342934	-0.999506690477143	-0.2567034203649694	0.0	4.364416221215433
100	7.592171483782442	7.587772577732913	-1.9974552681777866	0.0	0.0	-0.2567034203649694	0.0	4.408501233550939
101	7.592171483782442	7.587772577732913	-1.9974552681777866	0.0	-1.0000000000172742	1.4259580516453636	0.0	0.0
102	7.592955007707094	7.589490963813938	-2.0031424663335113	-0.0614511140345151	-0.9995065603829811	1.4259580516453636	-0.8594756642483474	0.06146122350059144
103	7.595328223659196	7.59463376477977	-2.01207136247738	-0.12284158323855908	-0.9980267284454475	1.3731336257516766	-0.5421950620613991	0.12292244700118288
104	7.599357514891644	7.603164270319617	-2.025070534955933	-0.1841108226307867	-0.9955619646201331	1.339809653861404	-0.47081314178559325	0.18438367050177432
105	7.6051482228997855	7.615022272682212	-2.0416615924693033	-0.24519836686904087	-0.9921147013313595	1.310872902127104	-0.49908067414139035	0.24584489400236575
106	7.612836620156296	7.63012554969757	-2.061202190405577	-0.30604392992234497	-0.9876883406117993	1.280198793268874	-0.5964349510870328	0.3073061175029572
107	7.622578837431031	7.648372491522254	-2.0828903823907794	-0.3665874645659374	-0.9822872507450822	1.2435411714365496	-0.7685237843959262	0.3687673410035487
108	7.634537188467566	7.669646487142884	-2.1057775001640655	-0.42676922164063236	-0.975916761954825	1.1963067593582712	-1.0475124466970116	0.43022856450414015
109	7.648864635355721	7.6938226150359315	-2.1287899399675894	-0.4865298090180269	-0.9685831611443456	1.1319253627521748	-1.505327774140058	0.4916897880047316
110	7.665688388843547	7.7207769328670235	-2.15075678725448	-0.5458102502133607	-0.9602936856922479	1.0394060759841048	-2.2910156120504674	0.5531510115053231
111	7.685093689354236	7.750398283616487	-2.1704368106325194	-0.6045520425881864	-0.9510565163100028	0.8985974534085267	-3.686902699449288	0.6146122350059146
112	7.707108542845597	7.782602143672334	-2.1865362750258286	-0.662697215085411	-0.9408807689685739	0.67199590257274	-5.952969656795185	0.676073458506506
113	7.73168956093492	7.8173457690310215	-2.1977090973936733	-0.7201883854397291	-0.9297764859020545	0.3061191040042119	-7.98226574141185	0.7375346820070975
114	7.758708163378231	7.854643833334342	-2.202533129308565	-0.7769688168069928	-0.9177546256971955	-0.18448071476981623	-7.154145129797063	0.798995905507689
115	7.787935401112437	7.89458385546038	-2.1994604016592145	-0.8329824737566249	-0.9048270524786027	-0.6241832275479414	-1.5489139306580904	0.8604571290082804
116	7.819022704760385	7.937340780896233	-2.1867453462690873	-0.8881740775718255	-0.8910065242002783	-0.719381372823298	11.924614983422762	0.9219183525088719
117	7.851475092449002	7.983189727230171	-2.1702564150155035	-0.9424891608029901	-0.876306680055061	0.0135200538313502	2.1419797479568494	0.9833795760094634
118	7.884700712572377	8.03181179230767	-2.170526490057043	-0.9958741210205069	-0.8607420270143888	0.1451687498542667	1.1435937196954071	1.0448407995100548
119	7.920159387648918	8.083671616523556	-2.1736121399429407	-1.0482762737138842	-0.8443279255116701	0.21545541905433874	1.1544813755483236	1.1063020230106462
120	7.95758628381033	8.138049160435186	-2.178474311389334	-1.0996439042850006	-0.82708057428339	0.2864112569041844	1.149427481746451	1.1677632465112375
121	7.997061466540852	8.1948097495027	-2.1853379324697033	-1.14992631908417	-0.8090169943829136	0.3570564762575249	1.1282456116282378	1.2292244700118289
122	8.038688628691602	8.253796754139431	-2.1944294338101953	-1.199073895438653	-0.7901550123827606	0.4263998319573694	0.0858870638981226	1.2906856935124202
123	8.082595983487765	8.31482936760613	-2.2059736369047784	-1.2470381306242457	-0.7705132427819312	0.4316785559874215	-2.013926686279337	1.3521469170130116
124	8.128936460332802	8.377700189307754	-2.2181483286602197	-1.29377168973161	-0.7501110696356424	0.30790015780820185	0.7881052088248244	1.413608140513603
125	8.177706383315467	8.442207727451514	-2.226868133148282	-1.3392284523801168	-0.7289686274256062	0.3563380681897646	0.9672546384382041	1.4750693640141943
126	8.228749903506772	8.508512676756421	-2.2374330654679575	-1.383363558233092	-0.7071067811897264	0.41578672170479875	0.937501133191274	1.5365305875147857
127	8.282146143651456	8.576378230791695	-2.2503779524670726	-1.4261334512695532	-0.6845471059308259	0.4734066883839253	0.8631625848731619	1.597991811015377
128	8.338047527701319	8.645565711201849	-2.2658608776787506	-1.4674959227687436	-0.6613118653247234	0.5264577169301629	-0.8269424342181153	1.6594530345159684
