	x	y	theta	v	a	sigma	omega	t
0	7.906	23.75	-1.5539407803924896	0.0	0.9999999999999999	1.4778909205117907	0.0	0.0
1	7.90610182206903	23.745272656072025	-1.5309105928986029	0.09722756785616604	0.9992434578258712	1.4778909205117907	-0.4295465082253559	0.09725209419693469
2	7.906667297836034	23.731102780943562	-1.4959162896117686	0.19430802220118976	0.9969749760156078	1.436116623031894	-0.39731577855927974	0.19450418839386938
3	7.908435076211901	23.707538781552042	-1.4478265375518993	0.29109447211908	0.9931979869735309	1.3974768315095185	-0.541955696889024	0.29175628259080405
4	7.912492915907769	23.674706608404705	-1.3920684227773457	0.3874404715473428	0.9879182056026437	1.3447705050251018	-0.9211323562184793	0.38900837678773875
5	7.920053515200464	23.632855712449093	-1.335566562462334	0.4832002408622258	0.9811436206575007	1.2551884543502978	-1.9376784003704286	0.48626047098467345
6	7.932155967936947	23.58235868828007	-1.285939831419723	0.5782288874555859	0.9728844826565484	1.0667451720341072	-5.577361942431008	0.5835125651816081
7	7.949354069586792	23.523625971425005	-1.2507840583403613	0.6723826249696268	0.963153288372226	0.5243350430384082	-11.69293325966177	0.6807646593785428
8	7.971452420798128	23.45694477116979	-1.2377435370486924	0.7655189908577862	0.9519647619222952	-0.612827203768689	-3.125168983102315	0.7780167535754775
9	7.997276583632066	23.38229538832425	-1.2557943154917568	0.8574970619425847	0.9393358324910072	-0.916756432094694	9.796244787416281	0.8752688477724122
10	8.024352391966119	23.299202954131385	-1.2933059118312342	0.9481776676442814	0.9252856087138197	0.03594888874734468	1.7961684318048707	0.9725209419693469
11	8.050055737424145	23.20896485844444	-1.2921623404041838	1.0374236005576982	0.9098353497644197	0.21063003027079244	0.909606284223964	1.0697730361662816
12	8.078981717166341	23.107851916987492	-1.2847241516266386	1.1250998240585985	0.8930084331878	0.29909114630626504	0.7923221208651873	1.1670251303632162
13	8.111043177805314	22.99885129942016	-1.2730903169845589	1.2110736766254888	0.874830319528062	0.37614613183896123	-0.567792194097169	1.2642772245601508
14	8.146800645982978	22.882310850655028	-1.2570499379974807	1.2952150725676905	0.8553285138044653	0.3209271518943392	0.10590110773376586	1.3615293187570854
15	8.186911939055404	22.758687334466682	-1.2426112314184532	1.377396698855963	0.8345325238940128	0.3312262563992231	0.45064052459864057	1.45878141295402
16	8.231352389270809	22.628171406693898	-1.226726254732249	1.4574942077578557	0.8124738158835445	0.3750519911464461	0.19197067472137108	1.5560335071509546
17	8.280459241318457	22.491125025314158	-1.207483889175403	1.535386404986314	0.789185766458894	0.393721541287498	-0.23404926652045493	1.6532856013478892
18	8.334859118710924	22.348038743081762	-1.186094536215723	1.6109554330768605	0.7647036124031472	0.37095975997312725	-0.1573557841681034	1.7505376955448237
19	8.394905980169995	22.199729072423942	-1.1650810529598077	1.6840869497158784	0.7390643972804174	0.35565658042877835	0.1374651585578313	1.8477897897417583
20	8.4609269397681	22.046029862778717	-1.1441028482312348	1.7546703007501767	0.7123069153858084	0.3690253549776411	-0.2582280947287175	1.945041883938693
21	8.53296091650817	21.887582868571087	-1.1213456819007286	1.8225986876160583	0.6844716530463736	0.3439121319847889	-0.6706478323671329	2.0422939781356275
22	8.611364415482385	21.725047372893528	-1.0994554434048847	1.8877693289345536	0.6556007273618885	0.2786902258184504	0.21373851620489864	2.1395460723325623
23	8.696141202678582	21.55870550028697	-1.0813410590042003	1.9500836160283181	0.6257378224781259	0.29947674412992226	-0.6893398411597674	2.236798166529497
24	8.786656008428547	21.388784839315736	-1.061149052701857	2.009447262124877	0.5949281234890592	0.23243700096375247	-0.430438953204135	2.334050260726432
25	8.88335837994963	21.215760841884784	-1.0451974559264527	2.0657704450204664	0.5632182480680031	0.19057591134071392	-0.006949999950633764	2.4313023549233668
26	8.98548893601512	21.039679793402065	-1.0318329229981862	2.118967942988603	0.5306561759311424	0.1899000092908462	-0.7289209440354719	2.5285544491203016
27	9.092444117185932	20.860831386413775	-1.0181740387051024	2.168959263727744	0.49729117624017427	0.11901092097938983	0.11550939965113648	2.6258065433172364
28	9.204386537382133	20.679318551102735	-1.009476500003131	2.215668766152931	0.4631737330539107	0.13024445199489354	-0.5251368219732577	2.723058637514171
29	9.320205859963501	20.495124488809157	-0.999743862806447	2.25902577484713	0.42835546894163934	0.0791737963180713	-0.01238740832018215	2.820310731711106
30	9.440024479779588	20.308623132021815	-0.9937333378283627	2.2989646869990974	0.39288906687382175	0.07796909491726105	-0.2645578534149587	2.917562825908041
31	9.562982370023093	20.119741570186473	-0.9877100022558497	2.3354250716659704	0.3568281905083162	0.052240289636410614	-0.09596852882337113	3.0148149201049756
32	9.688937087780738	19.928782033135384	-0.9836148712429745	2.368351761210378	0.32022740299273533	0.04290714923133887	-0.10587036678174924	3.1120670143019105
33	9.817349698147703	19.735819996165358	-0.9802049569625068	2.3976949347737304	0.2831420844058033	0.032611034348416154	-0.10892803996468738	3.2093191084988453
34	9.947910211981894	19.541073448459983	-0.9775818653636995	2.423410193659381	0.2456283479626237	0.022017554345082898	-0.035450528584384265	3.30657120269578
35	10.080279807039291	19.344743830635345	-0.9757922192673905	2.4454586285115987	0.20774295511065377	0.01856991619986323	-0.08758131373567808	3.403823296892715
36	10.21409894224953	19.14702856856007	-0.9742691447463925	2.4638068781887044	0.16954322964484517	0.010052450026549763	-0.01402635060005166	3.5010753910896497
37	10.349122126958518	18.948187451769307	-0.9734385404382918	2.478427180241294	0.13108697097190772	0.008688358056754306	-0.0643456019616979	3.5983274852865845
38	10.485006952859482	18.74843464520292	-0.9727163931814039	2.489297412919165	0.09243236665493247	0.0024306135136167874	-0.01218857989986373	3.6955795794835193
39	10.621528754984606	18.548056777254747	-0.9725134873562037	2.496401128643391	0.05363790437069904	0.0012452485930683737	-0.05632663141692306	3.792831673680454
40	10.758376774155979	18.34728766775283	-0.9724092384232018	2.4997275788928945	0.0147622834128892	-0.0042326342712862555	-0.01650929051923625	3.890083767877389
41	10.895332707466254	18.146405239005237	-0.9727640575178598	2.4999999999999996	0.0	-0.005838197347987582	-0.07211463425410826	3.9873358620743238
42	11.032219246133556	17.9454714527013	-0.9732535259396885	2.4999999999999996	0.0	-0.01285149655144562	-0.02168258838500318	4.084587956271259
43	11.16900743095254	17.74447066930507	-0.9743310291859993	2.4999999999999996	0.0	-0.014960173679497315	-0.12059165671722115	4.181840050468193
44	11.305578899447829	17.543322698276008	-0.9755853539869027	2.4999999999999996	0.0	-0.026687964837924932	-0.02409791754758786	4.279092144665128
45	11.441898102284972	17.34200336404506	-0.9778233512708085	2.4999999999999996	0.0	-0.029031537785212915	-0.21518641889006196	4.376344238862063
46	11.577766084393133	17.14037993837084	-0.980257981722736	2.4999999999999996	0.0	-0.049958867665010294	-0.02075263160015334	4.473596333058998
47	11.713143379664881	16.93842543629998	-0.9844499220003594	2.4999999999999996	0.0	-0.05197710454822269	-0.37197329520480016	4.570848427255933
48	11.847671885594004	16.735906754015197	-0.9888115076166487	2.4999999999999996	0.0	-0.08815228649222416	-0.010662181112781378	4.6681005214528675
49	11.981317563839424	16.532800580196447	-0.996221223243618	2.4999999999999996	0.0	-0.08918920593414915	-0.6004206687387671	4.765352615649802
50	12.113452016879844	16.32871374765579	-1.0037185592551647	2.4999999999999996	0.0	-0.14758137336811833	0.0014576020528162198	4.862604709846737
51	12.2440571383777	16.123634976625436	-1.0161821063421934	2.4999999999999996	0.0	-0.1474396185159762	-0.879750873349327	4.959856804043672
52	12.372090237432984	15.91695395483657	-1.028633506588352	2.4999999999999996	0.0	-0.23299723332078062	0.0018633852346444284	5.057108898240607
53	12.497550327360017	15.70867767651572	-1.0485288657555585	2.4999999999999996	0.0	-0.2328160152044158	-1.0996830785940286	5.1543609924375415
54	12.618829693740969	15.497968315009716	-1.0684081770590015	2.4999999999999996	0.0	-0.33976249755061755	-0.025488195301219832	5.251613086634476
55	12.735918286410822	15.284850351820754	-1.0980423723668964	2.4999999999999996	0.0	-0.34224127792096165	-0.9973174342998022	5.348865180831411
56	12.846615918128894	15.06840532249739	-1.1279105538882488	2.4999999999999996	0.0	-0.43923248698573136	-0.055908558331932715	5.446117275028346
57	12.950841105761503	14.848664993335728	-1.1673012776576246	2.4999999999999996	0.0	-0.4446697113670433	-0.7044028700815761	5.543369369225281
58	13.04628479373001	14.625101137906706	-1.207249907502691	2.4999999999999996	0.0	-0.513174365640808	-0.05876783008378667	5.640621463422216
59	13.132787186757305	14.397736788887208	-1.2544954536530064	2.4999999999999996	0.0	-0.5188896601878659	-0.43768366903152595	5.73787355761915
60	13.208382875366226	14.166761483819997	-1.302374372194303	2.4997275788928945	-0.014762283412891741	-0.5614553135969799	-0.039317859482449154	5.835125651816085
61	13.272873623582722	13.932300793276823	-1.355100952953417	2.4964011286433907	-0.05363790437070158	-0.5652790577709889	-0.2520669339039431	5.93237774601302
62	13.324731638972422	13.695618446660754	-1.408205203516035	2.4892974129191647	-0.09243236665493501	-0.5897930949709477	-0.021339642503198846	6.029629840209955
63	13.36387946575276	13.456969204958627	-1.4640740933949241	2.478427180241293	-0.13108697097191024	-0.5918684198937977	-0.1292763367789715	6.12688193440689
64	13.389455925013342	13.2182252951018	-1.519949111928951	2.463806878188703	-0.16954322964484767	-0.6044408143756609	-0.006361640408448077	6.2241340286038245
65	13.401604522518545	12.979507679754716	-1.5770157132953724	2.4454586285115973	-0.20774295511065624	-0.6050594972279103	-0.045456048600505394	6.321386122800759
66	13.400133603055133	12.743005172985221	-1.633732306277981	2.4234101936593797	-0.24562834796262617	-0.6094801931482271	0.0040474864957922504	6.418638216997694
67	13.385369570797591	12.508726877916347	-1.690470275324708	2.3976949347737286	-0.28314208440580574	-0.6090865666102775	0.022688656101148605	6.515890311194629
68	13.357725555810491	12.278836262904807	-1.7465591230662363	2.3683517612103757	-0.3202274029927378	-0.6068800472899267	0.00805456703532463	6.613142405391564
69	13.317680583256303	12.053351929984348	-1.8017014281231356	2.335425071665968	-0.3568281905083186	-0.6060967237778918	0.09600556582952012	6.7103944995884985
70	13.266123012730985	11.834049734164793	-1.8559862295964913	2.298964686999095	-0.39288906687382413	-0.5967599814464093	0.008516253955130958	6.807646593785433
71	13.203701653260762	11.621139670329221	-1.908364715701307	2.259025774847127	-0.42835546894164145	-0.5959317579145599	0.1674330443733677	6.904898687982368
72	13.131586394079546	11.415685049927072	-1.9597416003904418	2.2156687661529286	-0.46317373305391274	-0.5796485437114816	0.08117368871564973	7.002150782179303
73	13.050674018588735	11.218252323305869	-2.0083852050370448	2.1689592637277406	-0.49729117624017666	-0.5717542324901945	0.1429245038611227	7.099402876376238
74	12.962151567178047	11.0290364306971	-2.0551872312871153	2.1189679429885993	-0.5306561759311447	-0.5578545251776424	0.31323465618523866	7.196654970573173
75	12.867910011477125	10.84993966048845	-2.0995261820417337	2.065770445020463	-0.5632182480680052	-0.5273917988885711	-0.07542588963480078	7.293907064770107
76	12.767817707695643	10.678610952370889	-2.139873844344738	2.0094472621248736	-0.5949281234890612	-0.5347271246122224	0.5907933613241834	7.391159158967042
77	12.664243338122455	10.516691965136358	-2.1797862628355746	1.9500836160283146	-0.6257378224781278	-0.47727123298579915	0.10535506267475785	7.488411253163977
78	12.55740772521151	10.363504279092068	-2.213605868516729	1.8877693289345492	-0.6556007273618905	-0.46702523250642963	0.10863566790267014	7.585663347360912
79	12.449124080871682	10.218917879612489	-2.245526970190671	1.8225986876160538	-0.6844716530463755	-0.45646018629841223	0.9553391590186486	7.682915441557847
80	12.340868640481682	10.08359572214636	-2.2755404073072425	1.7546703007501723	-0.7123069153858101	-0.3635514524155101	-0.11646205860218409	7.7801675357547815
81	12.232470136071584	9.956132662865185	-2.2979280733905947	1.6840869497158737	-0.7390643972804191	-0.3748776315090587	0.11014781251686022	7.877419629951716
82	12.1258959647934	9.836354825695967	-2.320150625668152	1.6109554330768547	-0.7647036124031492	-0.36416552607058267	1.1265999294503117	7.974671724148651
83	12.021658262345564	9.724318389950572	-2.340742633371087	1.5353864049863089	-0.7891857664588956	-0.25460132360942184	0.6089669309284688	8.071923818345585
84	11.920313924981423	9.619792725601046	-2.354142726171065	1.4574942077578512	-0.8124738158835457	-0.19537801427994864	-0.8382299398870218	8.169175912542519
85	11.823003205271354	9.52208186707188	-2.3638156839685283	1.377396698855959	-0.8345325238940139	-0.27689763135253154	0.7733229508897014	8.266428006739453
86	11.730478007862546	9.430956334561749	-2.376943172589042	1.295215072567687	-0.8553285138044661	-0.2016903548879554	0.9040243071566217	8.363680100936387
87	11.642514934240591	9.346569801448751	-2.3858244086922484	1.2110736766254853	-0.8748303195280628	-0.11377209781204169	0.914370866281652	8.46093219513332
88	11.559826595240363	9.268641901707827	-2.390465144273422	1.1250998240585959	-0.8930084331878005	-0.024847616193486396	1.4304010440477057	8.558184289330255
89	11.482953397401923	9.196865034170722	-2.391402849080398	1.0374236005576964	-0.90983534976442	0.1142618808816337	-1.06870689762719	8.655436383527189
90	11.412319880934758	9.131038054110068	-2.387410263326685	0.9481776676442796	-0.92528560871382	0.010327897004681208	-1.6402751798233632	8.752688477724123
91	11.348317909837629	9.070912091473003	-2.387081852076234	0.8574970619425841	-0.9393358324910072	-0.14919229929239325	-1.347251864817181	8.849940571921056
92	11.290808607591226	9.016850030620475	-2.3914041935847115	0.7655189908577856	-0.9519647619222952	-0.28021536455658863	-1.038714257160877	8.94719266611799
93	11.239652068020105	8.969174768208525	-2.3987922274739195	0.6723826249696275	-0.963153288372226	-0.3812325013376965	-0.7444681100480963	9.044444760314924
94	11.194852537310245	8.928038139246564	-2.4078306213187384	0.5782288874555878	-0.9728844826565483	-0.4536335841027073	-0.4642194400396465	9.141696854511858
95	11.15651426684517	8.893467930104906	-2.417284606930896	0.48320024086222774	-0.9811436206575006	-0.49877989681349094	-0.16989268562433632	9.238948948708792
96	11.124799146258468	8.865408964795588	-2.4261113578994413	0.38744047154734595	-0.9879182056026435	-0.515302316279199	0.21908238275367503	9.336201042905726
97	11.09988924460848	8.843759652282037	-2.4334697648615746	0.29109447211908335	-0.9931979869735308	-0.49399609575474984	0.7116589228060977	9.43345313710266
98	11.081956076176104	8.828404017833298	-2.438726868584609	0.1943080222011943	-0.9969749760156076	-0.4247857751579227	1.5670622983183007	9.530705231299594
99	11.071137349384554	8.81923840155075	-2.441674290829985	0.09722756785617179	-0.9992434578258712	-0.27238568490940757	0.0	9.627957325496528
100	11.066410734497486	8.81525788832869	-2.4425850535666065	0.0	0.0	-0.27238568490940757	0.0	9.725209419693469
101	11.066410734497486	8.81525788832869	-2.4425850535666065	0.0	-1.0000000084245861	1.4219110516059608	0.0	0.0
102	11.067049927169984	8.815794660399998	-2.445004118446012	-0.04085277155577619	-0.9995065687861365	1.4219110516059608	-1.2477255990129184	0.04085949199697678
103	11.068969988438282	8.817400740461002	-2.448841536053871	-0.08166522635823974	-0.9980267368361371	1.3709296174786694	-0.6892389694362073	0.08171898399395355
104	11.072178257698528	8.820063513363436	-2.4545216138111408	-0.122397087441846	-0.9955619729900604	1.3427676633229861	-0.49552059437426754	0.12257847599093033
105	11.076686580803536	8.823762249196317	-2.4619527731907778	-0.16300815737732074	-0.9921147096722481	1.3225209435628136	-0.4257880393927037	0.1634379679879071
106	11.082510718246672	8.828468536263399	-2.4710125318904197	-0.20345835794166947	-0.9876883489154019	1.305123460574839	-0.4136736319115825	0.20429745998488388
107	11.089669528094456	8.834146896029027	-2.4815475140631094	-0.24370776967054522	-0.9822872590031877	1.2882209661223873	-0.4362169586333859	0.24515695198186066
108	11.098183950050442	8.840755596598733	-2.4933738557817464	-0.28371667125393996	-0.9759167701592681	1.270397362792161	-0.48533973441304684	0.2860164439788374
109	11.108075826898515	8.848247680568095	-2.5062781910051735	-0.32344557873632224	-0.9685831692870137	1.2505666277980962	-0.5596673075516827	0.3268759359758142
110	11.11936660930093	8.856572217989951	-2.520019356886748	-0.36285528448253407	-0.9602936937650893	1.2276989059242187	-0.662007777338911	0.367735427972791
111	11.132075998159392	8.865675785872325	-2.5343308750602085	-0.40190689587099354	-0.9510565243050351	1.200649604444103	-0.7989606677565997	0.4085949199697678
112	11.146220583756348	8.875504162898132	-2.5489241551607518	-0.44056187367601646	-0.9408807768778916	1.168004477434003	-0.9817481808685826	0.4494544119667446
113	11.16181254092084	8.886004213627855	-2.5634922430012352	-0.47878207010137946	-0.9297764937178369	1.1278907454947567	-1.2282030717643178	0.49031390396372143
114	11.178858433171392	8.897125922624793	-2.5777138184911688	-0.5165297664275892	-0.9177546334117144	1.0777069919133402	-1.566205585346861	0.5311733959606982
115	11.197358165686708	8.90882452830364	-2.591257058789952	-0.5537677102357044	-0.9048270600842295	1.0137126273332397	-2.0387850451207323	0.572032887957675
116	11.217304107654604	8.921062701127134	-2.6037829377081945	-0.590459152170976	-0.891006531689493	0.9304089060985732	-2.709385480276731	0.6128923799546518
117	11.238680380723798	8.933812712464588	-2.614947542211205	-0.6265678822100237	-0.876306687420458	0.8197047917504809	-3.657642248274741	0.6537518719516286
118	11.261462284306774	8.947058549059916	-2.624403050096182	-0.662058265395757	-0.8607420342486852	0.6702553875792949	-4.929217902321675	0.6946113639486055
119	11.285615802840894	8.960797942226229	-2.63179712027569	-0.6968952770047757	-0.8443279326077124	0.46885004814802766	-6.363445007489371	0.7354708559455823
120	11.311097116783795	8.975044297827502	-2.636770586151884	-0.7310445371125436	-0.8270805812341618	0.20884291779131373	-7.362776924460508	0.7763303479425591
121	11.337852019125489	8.989828529047927	-2.6389535049428745	-0.7644723445222227	-0.8090170011815417	-0.09199640702920589	-7.222610209841879	0.8171898399395359
122	11.365815122547382	9.005200804419331	-2.6379598050819517	-0.797145710023686	-0.7901550190225227	-0.38710859109552315	-6.059913054963254	0.8580493319365127
123	11.394908728402504	9.021232223506425	-2.6333810124478627	-0.8290323889498852	-0.7705132492562619	-0.6347135600671695	-4.520425867625123	0.8989088239334895
124	11.42504121699279	9.038016416044869	-2.6247798714629353	-0.8601009129984442	-0.7501110759381397	-0.8194158646283252	9.287737057303294	0.9397683159304663
125	11.456104810362383	9.055671019514023	-2.611807642820476	-0.8903206212870738	-0.728968633550038	-0.4399236466654163	12.576641613347865	0.9806278079274431
126	11.48792788544648	9.074307511418919	-2.6059032691347555	-0.9196616906121613	-0.707106787130037	0.07395154068401483	0.8782419318300888	1.0214872999244198
127	11.520743123980019	9.093786151356628	-2.60686325092106	-0.9480951648806716	-0.6845471116811417	0.10983605986903569	0.8928470175304519	1.0623467919213965
128	11.554560299172119	9.113815648752619	-2.608336388172388	-0.9755929836863154	-0.6613118708793582	0.1463173354363457	0.903756818575883	1.1032062839183732
129	11.589357681871205	9.134356527291795	-2.6103620839755073	-1.0021280100017818	-0.6374239951021347	0.1832443799321601	0.9107428330380138	1.1440657759153499
