	x	y	theta	v	a	sigma	omega	t
0	9.086	8.0	-1.4734498207144082	0.0	1.0000000000005316	-1.4432389174625087	0.0	0.0
1	9.086047666726833	7.999510200542792	-1.4751125644926733	0.03136851879518925	0.9995065603662314	-1.4432389174625087	1.3744028214459074	0.03137367930389436
2	9.086188666824318	7.998041095148459	-1.4777585736337915	0.06270608064949286	0.9980267284286763	-1.4001188441080972	0.7302853205866533	0.06274735860778873
3	9.086417038089662	7.995593573061651	-1.4816945716039056	0.09398175917278832	0.9955619646033266	-1.3772071066596698	0.49198648296667286	0.09412103791168308
4	9.086722969541846	7.992169157756031	-1.4868808590834703	0.12516468904632963	0.9921147013145032	-1.3617716805212225	0.38919359129074366	0.12549471721557745
5	9.087092989606296	7.987770074606795	-1.4932643983638083	0.15622409648309038	0.9876883405948795	-1.3495612456009358	0.3459920560496121	0.15686839651947182
6	9.087510229053953	7.982399344324789	-1.5007787916812196	0.18712932959777623	0.982287250728085	-1.3387062017927402	0.3346475562290694	0.1882420758233662
7	9.087954758227136	7.976060896294437	-1.5093443417638983	0.21784988865653507	0.9759167619377371	-1.3282070766837775	0.3434615105786499	0.21961575512726056
8	9.088403997216552	7.9687596943438574	-1.5188682443777548	0.24835545617651197	0.9685831611271538	-1.3174314253976518	0.36724066675086875	0.2509894344311549
9	9.088833196251082	7.960501866149203	-1.5292449608246512	0.2786159268455446	0.9602936856749392	-1.3059097344916617	0.4039020619779746	0.28236311373504924
10	9.089215981643038	7.951294826557936	-1.5403568105288168	0.3086014372324717	0.9510565162925648	-1.293237840728983	0.4531312722511811	0.3137367930389436
11	9.089524960298832	7.941147384736499	-1.5520748099294521	0.33828239525873394	0.9408807689509945	-1.2790214455108089	0.5158554328691153	0.3451104723428379
12	9.089732373247196	7.930069825323158	-1.5642597646165615	0.3676295094021831	0.9297764858843223	-1.2628371625928017	0.5941053533961379	0.37648415164673227
13	9.089810786117692	7.918073954775316	-1.5767635985057926	0.3966138176042776	0.9177546256792991	-1.2441978917626244	0.691118590158323	0.4078578309506266
14	9.089733802333143	7.905173105857803	-1.589430879142745	0.4252067158521384	0.9048270524605315	-1.2225149587540376	0.8116508867215579	0.43923151025452095
15	9.089476783281295	7.8913820956578915	-1.602100474768409	0.4533799864072552	0.8910065241820224	-1.197050484127314	0.9625282114323255	0.4706051895584153
16	9.089017559182517	7.876717135478726	-1.61460725949515	0.48110582565298865	0.876306680036611	-1.1668524327008851	1.1535239332934708	0.5019788688623097
17	9.088337114960797	7.861195694222599	-1.6267837704034713	0.5083568715333826	0.8607420269957358	-1.130662142748369	1.398695571994462	0.533352548166204
18	9.087420237213891	7.8448363201469	-1.6384617163217008	0.5351062305562101	0.8443279254928061	-1.0867799164288376	1.7183412194909669	0.5647262274700984
19	9.086256111275896	7.827658428869748	-1.6494732430346437	0.561327504333603	0.8270805742643075	-1.0328692300738653	2.1416266215752167	0.5960999067739927
20	9.084838861141247	7.80968206797098	-1.6596518730594505	0.5869948156340741	0.8090169943636061	-0.9656785232598818	2.7092986302694824	0.6274735860778871
21	9.08316802933223	7.790927670312623	-1.6688330581888482	0.6120828339202206	0.790155012363222	-0.8806778568953268	3.473544867545047	0.6588472653817814
22	9.081248998241755	7.771415809237763	-1.6768543073981623	0.6365668003469052	0.7705132427621566	-0.7716999741732804	4.485079725013334	0.6902209446856757
23	9.079093358663103	7.751166969164066	-1.6835548790401957	0.6604225521952486	0.7501110696156277	-0.6309865212283134	5.742963375733546	0.7215946239895701
24	9.076719234763965	7.730201344941574	-1.6887750525402865	0.6836265467183149	0.7289686274053477	-0.4508086300240387	7.078805628179532	0.7529683032934644
25	9.074151577379286	7.708538682946186	-1.6923550200610644	0.7061558843749601	0.7071067811692221	-0.22872045239093172	8.04912672549834	0.7843419825973588
26	9.071422438965303	7.686198176524857	-1.6941334630584801	0.7279883314289163	0.6845471059100741	0.023810268171258416	8.13872906675459	0.8157156619012531
27	9.068571243705435	7.663198428394352	-1.6939459039143188	0.7491023418908025	0.6613118653037232	0.2791521438529002	7.293533705865904	0.8470893412051475
28	9.06564506492244	7.63955749318901	-1.6916229519331278	0.7694770787814172	0.6374239897274252	0.5079771313328811	5.987614427833948	0.8784630205090418
29	9.062698918909062	7.615293014757829	-1.6869886002620578	0.7890924346953198	0.6129070536303571	0.6958306261871142	4.703733574240605	0.9098366998129361
30	9.05979607919252	7.590422475131714	-1.6798587811306227	0.8079290516444126	0.5877852522684824	0.8434040548762997	3.652109024232753	0.9412103791168305
31	9.057008407550903	7.564963575274265	-1.6700404572397674	0.825968340161938	0.5620833778267555	0.9579841521854365	-1.1820164131214441	0.9725840584207248
32	9.054416687001584	7.538934771521547	-1.6573316226913368	0.8431924976480378	0.5358267949522268	0.9208999483082249	-26.615388418020807	1.0039577377246192
33	9.052110926414436	7.512355995371697	-1.645329523228133	0.8595845259387699	0.5090414157221994	0.08587728753265637	-3.634421358410328	1.0353314170285135
34	9.050105354774018	7.485497406474399	-1.6445289448974383	0.875128248081244	0.481753674072137	-0.028147882621333303	-0.13784881569717478	1.0667050963324078
35	9.048065654435806	7.45788408181571	-1.6447955077380614	0.8898083242983205	0.45399049970856115	-0.0324727071574381	-0.13957624412331407	1.0980787756363022
36	9.045985558541888	7.4298256939205976	-1.645108212938712	0.9036102671271197	0.4257792915326815	-0.036851727479005024	-0.14116131905245652	1.1294524549401965
37	9.043865575879808	7.401350049284841	-1.6454686281590627	0.9165204557163968	0.3971478906009894	-0.041280477433071505	-0.14260109264384804	1.1608261342440909
38	9.041706169055324	7.372485373776175	-1.6458781726776333	0.9285261492686802	0.36812455264949473	-0.04575439838206452	-0.1438928542021779	1.1921998135479852
39	9.039507762834528	7.343260284427971	-1.6463381089397793	0.9396154996138972	0.33873792020872795	-0.050268846643925676	-0.1450341367175138	1.2235734928518796
40	9.037270753535248	7.313703760789421	-1.646849534675431	0.9497775629020904	0.30901699433701857	-0.05481910113741812	-0.14602269919934258	1.254947172155774
41	9.034995519392854	7.283845115859234	-1.6474133756253029	0.9590023104036742	0.2789911059999528	-0.059400370473187324	-0.14685652405591124	1.2863208514596682
42	9.03268243181469	7.253713966630067	-1.648030378904084	0.9672806384065814	0.24868988712425208	-0.06400779996260213	-0.14753381636738228	1.3176945307635626
43	9.030331867427272	7.22334020427111	-1.6487011070311433	0.9746043772005272	0.21814324135463783	-0.06863647860379202	-0.14805299102189748	1.349068210067457
44	9.02794422081104	7.192753963976501	-1.649425932657339	0.980966299139527	0.18738131454254578	-0.07328144566409538	-0.14841268141234762	1.3804418893713513
45	9.025519917808861	7.161985594507627	-1.650205034009886	0.9863601257747111	0.15643446499580865	-0.07793769753535741	-0.14861172730698238	1.4118155686752456
46	9.023059429286976	7.131065627457788	-1.6510383910816868	0.9907805340503947	0.12533323351867248	-0.08260019420868447	-0.14864917969315114	1.44318924797914
47	9.020563285220415	7.1000247462683	-1.6519257825820068	0.9942231615572915	0.09410831327171039	-0.08726386590116436	-0.14852429366200298	1.4745629272830343
48	9.01803208896947	7.068893755025754	-1.6528667836683142	0.9966846108376859	0.0627905194813773	-0.09192361945935347	-0.09846748439031837	1.5059366065869286
49	9.01546653160938	7.037703547071046	-1.6538607644723993	0.998162452738312	0.03141075902910366	-0.09501290673647654	0.10297638159180433	1.537310285890823
50	9.012867406172301	7.006485073451669	-1.6548898723588414	0.998655228807636	0.0	-0.09178215876453982	0.15366725841247925	1.5686839651947173
51	9.010236299857587	6.975271010371879	-1.6558842771316995	0.9981624527383121	-0.03141075902910243	-0.08696105147959804	0.15328604937006388	1.6000576444986117
52	9.007576647092426	6.944088791715614	-1.6568257117120495	0.9966846108376859	-0.06279051948137629	-0.08215190412490074	0.15267443418168594	1.631431323802506
53	9.004892948471397	6.912970649689525	-1.657713524490573	0.9942231615572916	-0.09410831327170915	-0.077361945388981	0.15190839515270446	1.6628050031064003
54	9.002189663416821	6.881947166611866	-1.6585472946050652	0.9907805340503948	-0.12533323351867148	-0.0725960201158908	0.15098817192620964	1.6941786824102947
55	8.999471322907471	6.851048822034114	-1.659326804458595	0.9863601257747113	-0.15643446499580746	-0.06785896563119663	0.1499142206452002	1.725552361714189
56	8.996742510127707	6.820305964116238	-1.660052037419097	0.9809662991395273	-0.18738131454254456	-0.06315560494958086	0.14868720932047289	1.7569260410180834
57	8.994007841202897	6.789748781186899	-1.6607231747454823	0.9746043772005274	-0.21814324135463686	-0.058490740127769336	0.14730799355265978	1.7882997203219777
58	8.991271946161847	6.759407273496203	-1.661340591754906	0.9672806384065817	-0.24868988712425089	-0.05386914637914805	0.145777614554863	1.819673399625872
59	8.988539450262536	6.729311225168318	-1.6619048532549805	0.9590023104036746	-0.2789911059999518	-0.04929556625041706	0.14409727412593426	1.8510470789297664
60	8.985814955811817	6.699490176361279	-1.6624167082596406	0.9497775629020908	-0.3090169943370174	-0.04477470458342465	0.14226832904207348	1.8824207582336607
61	8.983103024603187	6.669973395641724	-1.6628770840173015	0.9396154996138976	-0.33873792020872684	-0.040311223652957716	0.1402922729591846	1.913794437537555
62	8.980408161089077	6.640789852582865	-1.66328707937561	0.9285261492686805	-0.3681245526494938	-0.03590973887232185	0.13817071707120224	1.9451681168414494
63	8.977734796395698	6.611968190594997	-1.6636479575131917	0.9165204557163974	-0.3971478906009882	-0.03157481510574083	0.1359053826223003	1.9765417961453438
64	8.975087273279167	6.583536699998957	-1.6639611380709045	0.90361026712712	-0.4257792915326806	-0.027310963215675697	0.5885057936236235	2.0079154754492383
65	8.972469832111587	6.555523291354317	-1.6642281887129804	0.8898083242983211	-0.45399049970856004	-0.008847371178044305	5.792254333240102	2.0392891547531327
66	8.969886597975188	6.527955469055645	-1.6643133592722466	0.8751282480812447	-0.48175367407213593	0.17287695871962303	0.5418790093231373	2.070662834057027
67	8.967345335818225	6.500860408197795	-1.6626601295524173	0.8595845259387707	-0.5090414157221982	0.1898776969796391	-1.4781591884159682	2.1020365133609213
68	8.964894789194199	6.474259621861756	-1.6608728452493757	0.8431924976480384	-0.535826794952226	0.1435024046421718	-1.462603265525898	2.1334101926648157
69	8.96253922668979	6.448179703832655	-1.659554743584444	0.8259683401619385	-0.5620833778267545	0.09761515884073364	-1.4384348725913811	2.16478387196871
70	8.96026708038148	6.422647742412456	-1.6586796981164782	0.8079290516444133	-0.5877852522684816	0.052486164448513534	-1.4062398995061571	2.1961575512726044
71	8.958068054465297	6.397690101582881	-1.6582205164170432	0.7890924346953205	-0.6129070536303561	0.008367244817066749	-1.36678623381654	2.2275312305764987
72	8.955933161795107	6.37333241615259	-1.6581490852170246	0.769477078781418	-0.6374239897274242	-0.034513868159670925	-1.3209719501148482	2.258904909880393
73	8.9538547443261	6.34959958438639	-1.6584365133482701	0.7491023418908032	-0.6613118653037224	-0.07595761849201409	-1.2697696083874375	2.2902785891842874
74	8.95182647793148	6.32651575824688	-1.659053273498015	0.7279883314289171	-0.6845471059100732	-0.11579496297539306	-1.214172191393315	2.3216522684881817
75	8.949843362138312	6.304104331488803	-1.6599693436076135	0.706155884374961	-0.7071067811692212	-0.15388801192787355	-1.1551451308934282	2.353025947792076
76	8.94790169541116	6.282387925935631	-1.6611543485132783	0.6836265467183158	-0.728968627405347	-0.190129164813979	-1.093587162501834	2.3843996270959704
77	8.945999036700293	6.261388376336112	-1.662577702186856	0.6604225521952494	-0.7501110696156271	-0.22443901774116734	-1.0303011390488734	2.4157733063998648
78	8.9441341540637	6.241126714245576	-1.6642087506795613	0.6365668003469059	-0.7705132427621559	-0.25676335526412375	-0.9659744450142598	2.447146985703759
79	8.942306961267699	6.221623151402936	-1.6660169156314768	0.6120828339202213	-0.7901550123632214	-0.28706952771775845	-0.9011675599189677	2.4785206650076534
80	8.940518443367033	6.202897063080325	-1.6679718379861839	0.5869948156340751	-0.8090169943636053	-0.31534246974172914	-0.8363087124771162	2.509894344311548
81	8.938770572359298	6.1849669718692635	-1.6700435213485951	0.561327504333604	-0.8270805742643068	-0.34158055108603896	-0.7716920811881115	2.541268023615442
82	8.937066214097317	6.167850532336809	-1.6722024742705603	0.5351062305562108	-0.8443279254928056	-0.36579137096258957	-0.7074768480153247	2.5726417029193365
83	8.935409027723422	6.151564516939222	-1.6744198506235746	0.5083568715333835	-0.8607420269957353	-0.38798752270715237	-0.6436841220952738	2.604015382223231
84	8.933803358958624	6.136124803521859	-1.6766675871416643	0.48110582565298965	-0.8763066800366105	-0.40818226192677826	-0.5801882194751099	2.635389061527125
85	8.93225412863478	6.121546364664892	-1.6789185371838082	0.4533799864072563	-0.8910065241820219	-0.4263849010604878	-0.5166976085754053	2.6667627408310195
86	8.930766717896754	6.107843259058111	-1.6811465997740005	0.4252067158521396	-0.904827052460531	-0.4425956061290217	-0.45271844285781854	2.698136420134914
87	8.929346851522896	6.095028625007743	-1.6833268430220285	0.39661381760427855	-0.9177546256792987	-0.4567990493702013	-0.38748897075106686	2.729510099438808
88	8.92800048081486	6.08311467609696	-1.6854356211019415	0.3676295094021841	-0.9297764858843218	-0.4689560040723414	-0.31986360814353515	2.7608837787427025
89	8.926733667491861	6.072112698942781	-1.6874506840746009	0.33828239525873505	-0.940880768950994	-0.4789913023352232	-0.248106417021733	2.792257458046597
90	8.925552469990095	6.062033052918311	-1.6893512799530805	0.3086014372324729	-0.9510565162925644	-0.4867753134961013	-0.16951212702215818	2.823631137350491
91	8.924462833516639	6.052885171643251	-1.6911182485481655	0.2786159268455459	-0.9602936856749389	-0.4920935326074155	-0.07967845857628966	2.8550048166543855
92	8.923470485139847	6.044677565989675	-1.6927341067477737	0.24835545617651295	-0.9685831611271536	-0.49459333901421665	0.028981991890390163	2.88637849595828
93	8.922580835117328	6.037417828305881	-1.694183125031107	0.21784988865653615	-0.9759167619377369	-0.4936840672950595	0.17054249328970278	2.9177521752621742
94	8.921798885569808	6.031112637529988	-1.6954513951010155	0.18712932959777742	-0.9822872507280848	-0.4883335218029018	0.3737093582086126	2.9491258545660686
95	8.921129147507068	6.02576776484759	-1.696526888650304	0.1562240964830917	-0.9876883405948793	-0.4766088842456006	0.705032937779092	2.980499533869963
96	8.920575567102496	6.021388079544399	-1.6973995073086878	0.12516468904633107	-0.992114701314503	-0.4544894069570369	1.349996923911007	3.0118732131738573
97	8.920141461998027	6.017977554715127	-1.69806112391485	0.09398175917278945	-0.9955619646033265	-0.4121350364050091	2.1079530625527614	3.0432468924777516
98	8.9198294683026	6.015539272513134	-1.6985056152344231	0.06270608064949408	-0.9980267284286763	-0.34600079303281683	3.8947658519983834	3.074620571781646
99	8.919641498826698	6.014075428660426	-1.69875017554994	0.0313685187951906	-0.9995065603662314	-0.22380765822846074	0.0	3.1059942510855403
100	8.91955480530033	6.013401592827334	-1.6988274211272918	0.0	0.0	-0.22380765822846074	0.0	3.137367930389436
101	8.91955480530033	6.013401592827334	-1.6988274211272918	0.0	-1.000000000009051	1.4261055388168415	0.0	0.0
102	8.91978756397532	6.015194128071049	-1.704271928796294	-0.06011882818738823	-0.9995065603747617	1.4261055388168415	-0.8734769458078067	0.06012871847650736
103	8.920508992846372	6.020566941536449	-1.7128266915407153	-0.12017832634958762	-0.998026728437239	1.3735844894466445	-0.5456496147487419	0.12025743695301472
104	8.921787154322352	6.029505560216716	-1.7252975168349036	-0.1801192230129812	-0.9955619646119434	1.3407752773746027	-0.4676543138179537	0.18038615542952208
105	8.923730780756902	6.041985312503335	-1.741246058690602	-0.23988236374931238	-0.9921147013231955	1.3126558227947187	-0.48899665732909425	0.24051487390602944
106	8.926482146223464	6.057970485623701	-1.7600837047085909	-0.29940876955396384	-0.9876883406036686	1.2832530804502245	-0.5766598424112994	0.3006435923825368
107	8.930207081490863	6.077413624903028	-1.7810750152364225	-0.3586396950511146	-0.982287250736992	1.2485792631291683	-0.7330341558357717	0.36077231085904415
108	8.935082328399915	6.10025558648887	-1.8033485241197036	-0.4175166864683332	-0.9759167619467827	1.204502858739255	-0.9841071783718067	0.4209010293355515
109	8.941280685683806	6.12642698203409	-1.8259155008856334	-0.4759816393233943	-0.9685831611363583	1.1453297552602266	-1.3885740434751273	0.48102974781205887
110	8.948954668105173	6.155851530223588	-1.8476944321287918	-0.5339768557663873	-0.9602936856843228	1.0618365775163252	-2.06663685338182	0.5411584662885662
111	8.95821955988674	6.188451554206907	-1.8675360473670533	-0.5914451015205284	-0.951056516302147	0.9375723519661547	-3.2508216159388783	0.6012871847650736
112	8.969136665490343	6.2241554880910686	-1.8842417334688364	-0.6483296623654818	-0.9408807689607945	0.7421046142040212	-5.244515558938192	0.661415903241581
113	8.981697178147893	6.262906875567065	-1.8965679123458792	-0.704574400107448	-0.9297764858943588	0.42675861461496395	-7.565434835566682	0.7215446217180883
114	8.9958064298672	6.304674052602714	-1.9032105303053999	-0.760123807980783	-0.9177546256895902	-0.02814128676518686	-7.740624782682734	0.7816733401945957
115	9.01126747619229	6.349459529997072	-1.902766894181532	-0.8149230654264757	-0.9048270524710946	-0.4935751351553929	-4.80528854587426	0.841802058671103
116	9.027762168459107	6.397307939771806	-1.8936766797729614	-0.8689180921934198	-0.8910065241928743	-0.7825109773286517	9.02940603301405	0.9019307771476104
117	9.044827256964375	6.448311055350182	-1.875764229489035	-0.9220556017090928	-0.8763066800477677	-0.23958436395947277	5.931800915501815	0.9620594956241177
118	9.06183253655007	6.502332436023653	-1.8710941717235503	-0.9742831536669705	-0.8607420270072128	0.11708722334742448	1.1346468529013676	1.022188214100625
119	9.079618875679719	6.559770233449995	-1.8734702988093976	-1.0255492057787778	-0.8443279255046179	0.18531208453578588	1.1514282917349639	1.0823169325771325
120	9.098451543022824	6.620079441465508	-1.8774564679550385	-1.075803164640504	-0.8270805742764679	0.2545459921354033	1.1532701445994857	1.1424456510536398
121	9.118427293387095	6.68316430453199	-1.8832601995522693	-1.1249954356619845	-0.8090169943761277	0.3238906479873867	1.1396490027954673	1.2025743695301472
122	9.139668411082832	6.748916844158711	-1.8910909387670256	-1.1730774720107748	-0.7901550123761173	0.3924162820385077	1.0566873463568345	1.2627030880066545
123	9.16232415341394	6.817215373019647	-1.9011576469237885	-1.2200018225220115	-0.7705132427754362	0.45595353800528543	-1.6489054374756704	1.322831806483162
124	9.186571718507954	6.887922695330484	-1.9135630759374493	-1.2657221785269839	-0.7501110696293019	0.35680696716092863	-0.5759877196999367	1.3829605249596693
125	9.212604033756122	6.960872406993926	-1.923345663323236	-1.310193419554199	-0.7289686274194255	0.3221735637171657	0.9727971740650198	1.4430892434361766
126	9.240257012368572	7.036032665482546	-1.9324136345356324	-1.3533716578578399	-0.7071067811837113	0.3806666111312632	0.9499218475385679	1.503217961912684
127	9.269496113784042	7.11333357389267	-1.9436431958815172	-1.3952142817296709	-0.6845471059249819	0.4377841944765935	0.9171357242654709	1.5633466803891913
128	9.300505323164742	7.192612235834517	-1.9571839123605623	-1.4356799975516505	-0.6613118653190557	0.4929303902456997	0.5736914801429384	1.6234753988656987
