	x	y	theta	v	a	sigma	omega	t
0	7.965	22.625	-1.4895959532982865	0.0	0.9999999999999998	1.4773916480933533	0.0	0.0
1	7.965354592605268	22.620851335839543	-1.4695586169791404	0.09124000259195118	0.9993337990423035	1.4773916480933533	-0.44254310139902453	0.09126026938512584
2	7.966616672090925	22.608427459166563	-1.4389083093343848	0.18235843682968844	0.9973360838166464	1.4370050454451493	-0.38254199397140803	0.18252053877025168
3	7.969352951226017	22.587800904890386	-1.396271999213873	0.2732338963369058	0.9940095160826218	1.4020941600241954	-0.4845846581964893	0.27378080815537753
4	7.974410385905013	22.559117325462122	-1.3457884344456856	0.36374529847729364	0.9893585281654502	1.3578708335772847	-0.7568133827707637	0.36504107754050336
5	7.9827639300077164	22.522620427786695	-1.2928440497218023	0.4537720456852752	0.9833893170503407	1.2888038403913564	-1.397428653126382	0.4563013469256292
6	7.995310874190854	22.478648301634195	-1.2435546198319702	0.5431941861504341	0.9761098361256167	1.1612741250605492	-3.2541950381032403	0.5475616163107551
7	8.012647470217791	22.427575073523283	-1.2041737025636998	0.631892573641536	0.9675297845856052	0.8642954092515075	-9.174268570578434	0.6388218856958809
8	8.034871561556612	22.369697238575	-1.1808744254783177	0.7197490262571954	0.9576605945074124	0.02704918808902593	-9.884169987264949	0.7300821550810068
9	8.061421810655396	22.30509237432613	-1.1802616166618864	0.8066464838916678	0.9465154156188017	-0.8749828275971496	1.8482776060390047	0.8213424244661327
10	8.090901105189918	22.233485090489573	-1.2106563917263542	0.892469164205958	0.9341090977774719	-0.7063085153715345	9.305266140766737	0.9126026938512586
11	8.12073970932517	22.154245669285697	-1.2346166941768764	0.9771027168964314	0.9204581711850776	0.14289257933512853	0.8367440299115874	1.0038629632363845
12	8.151413389046905	22.066467204485154	-1.230192810906982	1.0604343760553765	0.9055808243623573	0.21925406491125582	0.858361061369613	1.0951232326215103
13	8.18499465990652	21.971716218422394	-1.2227565688824504	1.1423531104205171	0.8894968799147138	0.29758832660154927	0.7123930832490405	1.1863835020066362
14	8.221807238439167	21.870250668706653	-1.2117312310960886	1.2227497713132787	0.872227768120536	0.3626015112869571	-0.6291932041855989	1.277643771391762
15	8.262292150668586	21.76238750963675	-1.1971333093097032	1.3015172380686963	0.8537964983774557	0.30518116997768885	0.0891446130519223	1.368904040776888
16	8.306932373743896	21.648533569020007	-1.1842307738993019	1.3785505607631945	0.8342276285445818	0.3133165313790401	0.3803688961623156	1.4601643101620139
17	8.355664148361313	21.528812953311277	-1.1701756168021709	1.4537471000500664	0.8135472322215614	0.348029099308536	0.26581893359196307	1.5514245795471397
18	8.40872182394515	21.403536603285616	-1.1535783797242494	1.5270066639163347	0.7917828640080666	0.3722878067958054	-0.19455714794035303	1.6426848489322656
19	8.466533328460393	21.27310719830854	-1.1348136237884061	1.5982316411787834	0.7689635227899925	0.354532469063967	-0.24138881718185698	1.7339451183173915
20	8.529407223641948	21.138150531072224	-1.116195807857734	1.6673271315412843	0.7451196131012857	0.33250326058139384	-0.0789116308446637	1.8252053877025174
21	8.597581023049212	20.998662144062795	-1.0980769168918234	1.7342010720401335	0.7202829046128861	0.32530176389289023	0.14419494134650915	1.9164656570876433
22	8.671014086776275	20.85506759874229	-1.0796700996690705	1.79876435970892	0.6944864898027557	0.33846103308414505	-0.7127143812873362	2.007725926472769
23	8.74972155776697	20.707905625353206	-1.0597446360281744	1.8609309702994903	0.6677647398633978	0.2734185266532094	-0.33887299120469644	2.098986195857895
24	8.834140306147457	20.557356873725624	-1.043321462762725	1.92061807290082	0.6401532589056139	0.24249288618852544	0.13881920314312532	2.1902464652430207
25	8.923712323950557	20.403593089713272	-1.028370983864358	1.977746140303079	0.6116888365195196	0.25516156406319557	-0.9012469951107348	2.2815067346281466
26	9.018100751195405	20.246991902498397	-1.0121364181428203	2.0322390549598373	0.5824093987560222	0.17291352050685468	0.016874386973838026	2.3727670040132725
27	9.117682299309893	20.087682904385545	-1.000966595342698	2.0840242104072315	0.5523539575940795	0.174453481607796	-0.28585346611724755	2.4640272733983983
28	9.221509302436095	19.925637628672202	-0.9894080419970611	2.133032608004954	0.5215625589610636	0.14836641728526404	-0.5657843057030086	2.555287542783524
29	9.329587116996677	19.761174292098993	-0.9793752924340704	2.1791989488701757	0.49007622937549117	0.09673278913293105	0.15001711483332364	2.64654781216865
30	9.441588758701116	19.594409813476123	-0.9727208464687283	2.222461720881901	0.4579369212832102	0.11042339144499953	-0.5062547163587192	2.737808081553776
31	9.556818914577907	19.425280827660856	-0.9649664264020701	2.262763280639836	0.42518745715988254	0.06422244965261233	0.00919669484098338	2.829068350938902
32	9.675394696297882	19.254109044950276	-0.9603870388513575	2.3000499302685666	0.3918714724542339	0.06506174250125327	-0.2073576886621609	2.9203286203240277
33	9.79661935609968	19.080814172800604	-0.955671187547734	2.3342719889647086	0.3580333574480996	0.0461382239748674	-0.15723563386328265	3.0115888897091536
34	9.920382377082095	18.90565511620643	-0.9522795893231034	2.3653838591917062	0.32371819811072705	0.031788857671563205	-0.015187818386202583	3.1028491590942795
35	10.04630198079834	18.72872026631313	-0.9499125437297448	2.3933440874340777	0.28897171602614413	0.03040281327426599	-0.1874476380070527	3.1941094284794054
36	10.174034733156667	18.550134020983844	-0.9476220110037056	2.418115419430158	0.25384020747363384	0.013296291334136798	0.025666793788384032	3.2853696978645313
37	10.303414416898395	18.370118003182828	-0.9466101592436115	2.4396648498097493	0.21837048174248178	0.0156386498495172	-0.15887455753216967	3.376629967249657
38	10.434037770484059	18.18875907183843	-0.9454094203447608	2.4579636660705373	0.18260979876319106	0.001139714930688717	0.02119107331567863	3.467890236634783
39	10.565769933565763	18.0063229758399	-0.945321263582167	2.4729874868346875	0.14660580613825852	0.0030736179900375015	-0.1497750641438024	3.559150506019909
40	10.69823277504556	17.822909032308445	-0.945082065923438	2.484716294334637	0.11040647565641969	-0.010594894710900414	0.014723000480727748	3.650410775405035
41	10.831278080680688	17.638781390881114	-0.9459105295626414	2.493134461084807	0.07406003937494471	-0.009251269720871862	-0.16948663662431637	3.7416710447901607
42	10.964531584226966	17.45404340755872	-0.9466363733823717	2.498230770703697	0.03761492535515226	-0.024718665836385916	-0.01672338972370671	3.8329313141752865
43	11.09783403291287	17.26895455958076	-0.9485800758854959	2.499998432858608	0.0011196931367694854	-0.026244846887603836	-0.17962839203136582	3.9241915835604124
44	11.230809005755775	17.083561603218698	-0.9506453003320665	2.4999999999999996	0.0	-0.0426377823336032	-0.13740053723299922	4.015451852945538
45	11.36340064448241	16.89789466114299	-0.9540017617290766	2.4999999999999996	0.0	-0.055176992375147726	-0.13074769396312136	4.106712122330664
46	11.495369174818004	16.71178256885666	-0.9583470924011626	2.4999999999999996	0.0	-0.06710906214770618	-0.37228522094711547	4.19797239171579
47	11.626524359430448	16.525103604826242	-0.9636346800494233	2.4999999999999996	0.0	-0.10108391169944105	-0.029082225639352692	4.2892326611009155
48	11.756695149809891	16.33772725849516	-0.9716144162529173	2.4999999999999996	0.0	-0.10373796344560739	-0.7061276897543455	4.380492930486041
49	11.885360393879893	16.14932724458636	-0.9798051591688677	2.4999999999999996	0.0	-0.16817936663288555	0.0817707871736226	4.471753199871167
50	12.012486419927907	15.95986745254213	-0.9931624468945297	2.4999999999999996	0.0	-0.16071694256758695	-1.0373963649129117	4.563013469256293
51	12.137062614951837	15.768738668729585	-1.0059164755014938	2.4999999999999996	0.0	-0.2553900142886896	0.08272714568239796	4.654273738641419
52	12.259202254758275	15.576018995525295	-1.026457221309415	2.4999999999999996	0.0	-0.24784031268825144	-1.1218720196062053	4.745534008026545
53	12.377354653012615	15.380836515205367	-1.0463647591104361	2.4999999999999996	0.0	-0.35022265541314895	-0.14361637814547892	4.836794277411671
54	12.491606483725949	15.183326583531807	-1.0751023692285333	2.4999999999999996	0.0	-0.36332912477082147	-0.7498746845030504	4.928054546796797
55	12.600152495922565	14.982584745718533	-1.1050143721913663	2.4999999999999996	0.0	-0.4317628904836561	-0.3659817092901934	5.0193148161819225
56	12.702637100800642	14.77870457666643	-1.141263300272146	2.4999999999999996	0.0	-0.465162479863508	-0.34103118650314507	5.110575085567048
57	12.797718769041218	14.571128039246537	-1.1807487099444762	2.499998432858608	-0.0011196931367702513	-0.49628507781251413	-0.40591405378704104	5.201835354952174
58	12.884465912266714	14.360121201392964	-1.2233490249755608	2.498230770703697	-0.037614925355153254	-0.533328903708328	-0.10389698827621331	5.2930956243373
59	12.962116736847918	14.145698108121165	-1.2697642859972122	2.493134461084807	-0.07406003937494547	-0.5428105708467185	-0.3391270457878664	5.384355893722426
60	13.02924459093093	13.92948264519548	-1.3170937389608215	2.484716294334637	-0.11040647565642066	-0.5737593964011011	-0.016646296873546747	5.475616163107552
61	13.086105906377714	13.710186148473575	-1.3676278735639562	2.472987486834687	-0.14660580613825927	-0.5752785419380457	-0.22646282147640426	5.566876432492678
62	13.131362055303049	13.490507639173824	-1.4180912367677312	2.457963666070537	-0.1826097987631918	-0.595945600031698	0.0058053747728651255	5.658136701877804
63	13.16540608698983	13.269303507132603	-1.4705499658541559	2.4396648498097484	-0.21837048174248275	-0.5954157999660448	-0.12338566916382984	5.74939697126293
64	13.187535213445402	13.049296028695666	-1.5225587929398092	2.4181154194301575	-0.25384020747363456	-0.6066760093721999	0.005210050899751323	5.8406572406480555
65	13.198135970534583	12.82970491760757	-1.5753679642303624	2.393344087434077	-0.2889717160261451	-0.6062005387235784	-0.039560431626646145	5.931917510033181
66	13.197144520829807	12.612836714101684	-1.6275831148934048	2.3653838591917054	-0.3237181981107278	-0.609810834370818	-0.0009277497943061086	6.023177779418307
67	13.184959552583871	12.39849341251963	-1.6795871645282459	2.3342719889647077	-0.3580333574481005	-0.6098955010669683	0.02582038236528613	6.114438048803433
68	13.161991429696421	12.188205127907853	-1.7309164610044965	2.300049930268566	-0.39187147245423465	-0.6075391260166854	0.028810948433602268	6.205698318188559
69	13.128769608098803	11.982500726414157	-1.7812398184240068	2.2627632806398355	-0.42518745715988326	-0.6049098311013938	0.05324981601510828	6.296958587573685
70	13.085929175523535	11.781942656926097	-1.830470151681807	2.2224617208819	-0.45793692128321106	-0.6000502385471467	0.0897103966640801	6.388218856958811
71	13.03467536691356	11.589021506141435	-1.8783230021674717	2.1791989488701744	-0.49007622937549206	-0.5918632435809362	-0.007735318469035581	6.479479126343937
72	12.975022467286186	11.401199020930585	-1.9244246370415292	2.133032608004953	-0.5215625589610643	-0.5925691708282002	0.22635302406011795	6.5707393957290625
73	12.908523203870457	11.221055361065355	-1.9696184409842474	2.08402421040723	-0.5523539575940801	-0.5719121328763359	0.01448667967254588	6.661999665114188
74	12.83551534736509	11.047806883175216	-2.0118317593700663	2.0322390549598364	-0.5824093987560228	-0.5705900745869233	0.13602106178376167	6.753259934499314
75	12.757277657552235	10.88206524124103	-2.052876657321657	1.9777461403030774	-0.6116888365195203	-0.5581767558464864	0.42837887291749965	6.84452020388444
76	12.674778498695218	10.724400807374717	-2.091738725186577	1.9206180729008184	-0.6401532589056148	-0.5190827845051388	-0.17505554213400581	6.935780473269566
77	12.588808104681638	10.57457801332101	-2.1262708149106295	1.8609309702994892	-0.6677647398633982	-0.5350584004376474	0.3710289006319935	7.027040742654692
78	12.500734279847217	10.43267520005565	-2.1609822478345233	1.7987643597089187	-0.6944864898027563	-0.5011982030163046	0.6862889198744586	7.118301012039818
79	12.410980499492318	10.298679324837932	-2.191994054677657	1.7342010720401315	-0.7202829046128868	-0.4385672913125344	-0.3338583338270929	7.209561281424944
80	12.32056947159805	10.172357314738786	-2.217590825045269	1.6673271315412823	-0.7451196131012864	-0.4690352927940642	0.3030013530429602	7.30082155081007
81	12.230742347545753	10.05340599203991	-2.2441797498161953	1.5982316411787811	-0.7689635227899931	-0.441383307691306	0.9707147279882117	7.392081820195195
82	12.141784116059958	9.941898222561974	-2.2679426319063944	1.5270066639163329	-0.7917828640080672	-0.3527956201189926	0.5655486213211278	7.483342089580321
83	12.054415140307992	9.837567317871095	-2.2856359100502504	1.4537471000500644	-0.8135472322215619	-0.30118350058683996	-0.96875856250142	7.574602358965447
84	11.969653102639487	9.739912826748883	-2.299846786478726	1.3785505607631923	-0.8342276285445823	-0.38959266796986686	0.8349091209175059	7.665862628350573
85	11.888274429661347	9.64880461437781	-2.3176583895535567	1.3015172380686937	-0.8537964983774563	-0.31339863668283663	1.0969864456500913	7.757122897735699
86	11.810007208092498	9.564260157998502	-2.3309318612341254	1.222749771313276	-0.8722277681205366	-0.21328735814097755	1.0541203065127187	7.848383167120825
87	11.735627111538399	9.486023746834922	-2.3392656566140286	1.1423531104205153	-0.8894968799147142	-0.11708805500429537	5.353058542403465	7.939643436505951
88	11.665749500859768	9.413739267870747	-2.3434941704106262	1.0604343760553754	-0.9055808243623575	0.37143350960978944	1.4183576794441837	8.030903705891076
89	11.600836299729153	9.347155928832125	-2.3304957740705667	0.97710271689643	-0.9204581711850778	0.5008732135203277	-6.595374486574882	8.122163975276202
90	11.542132234080007	9.285354340671892	-2.313662910668064	0.8924691642059565	-0.9341090977774721	-0.10102243882028242	-5.382417486466294	8.213424244661327
91	11.489677560075746	9.228236565231741	-2.3165098338411485	0.806646483891666	-0.946515415618802	-0.5922233085784085	-2.93469705422654	8.304684514046453
92	11.442421288432993	9.177072463223118	-2.3335879662339694	0.7197490262571946	-0.9576605945074125	-0.860044552310858	-1.544453358468434	8.39594478343158
93	11.399809331961094	9.132488985209077	-2.3598993728637088	0.6318925736415348	-0.9675297845856053	-1.0009917818574496	-0.8369671005942514	8.487205052816705
94	11.361745796691693	9.09470645201013	-2.390936187024311	0.5431941861504327	-0.9761098361256169	-1.0773736249241688	-0.422233221491603	8.578465322201831
95	11.328456692684044	9.063653596628129	-2.4227213160398473	0.45377204568527363	-0.9833893170503409	-1.115906742460842	-0.108315216480678	8.669725591586957
96	11.300350712414335	9.039058812438887	-2.4519173521994877	0.3637452984772917	-0.9893585281654503	-1.1257916182953769	-0.20238254364411135	8.760985860972083
97	11.277895392785103	9.020537880945845	-2.4759192549784035	0.2732338963369047	-0.9940095160826219	-1.1442611037471855	5.5210440984056	8.852246130357209
98	11.261521839723022	9.007680778894878	-2.4948403988113887	0.18235843682968708	-0.9973360838166464	-0.640409132039531	0.0	8.943506399742335
99	11.248557038683986	8.997891156804224	-2.5033930501014403	0.0	0.0	-0.640409132039531	0.0	9.126026938512585
100	11.248557038683986	8.997891156804224	-2.5033930501014403	0.0	-1.0000000211583484	1.4158990851766482	0.0	0.0
101	11.249179322048692	8.998352318148607	-2.5055483514281103	-0.03935340088636621	-0.9995065815136138	1.4158990851766482	-1.3412143553606735	0.039359874174009886
102	11.251047941810407	8.999732131879233	-2.508968943987674	-0.07866796471724921	-0.9980267495447653	1.3631090569092763	-0.7353068440067646	0.07871974834801977
103	11.254168125835058	9.002019666515329	-2.514035768178132	-0.1179048927646507	-0.9955619856672943	1.3341674720498817	-0.5229674519405236	0.11807962252202966
104	11.258548302420737	9.005196956733275	-2.5206717682352666	-0.1570254629177176	-0.9921147223055734	1.3135835389444002	-0.4435796505527499	0.15743949669603954
105	11.264199663778259	9.00923937636569	-2.528774009359173	-0.19599106789679044	-0.9876883614923474	1.2961242997124927	-0.4251343704689464	0.19679937087004942
106	11.271135563646068	9.01411616481242	-2.5382137349257383	-0.23476325335412737	-0.9822872715113383	1.279391064383788	-0.44241034330302614	0.2361592450440593
107	11.279370768784885	9.01979111647649	-2.548836703306984	-0.27330375582370275	-0.9759167825862763	1.2619778489381004	-0.4860730080604661	0.2755191192180692
108	11.28892059092615	9.02622344206452	-2.56046393321587	-0.3115745404826283	-0.9685831816206122	1.242846076501458	-0.5537351322278995	0.3148789933920791
109	11.29979993228803	9.033368807021347	-2.572892959283417	-0.34953783868693145	-0.9602937059931029	1.221051131371239	-0.6470605706614015	0.35423886756608897
110	11.312022283224156	9.041180546060835	-2.5858996491658464	-0.38715618524464723	-0.951056536415393	1.1955829087270433	-0.7710470062199406	0.39359874174009885
111	11.325598713925828	9.049611044235807	-2.599240563763548	-0.42439245538943915	-0.940880788858639	1.1652345955799794	-0.9344192547297717	0.4329586159141087
112	11.340536902325791	9.058613265270614	-2.6126557612380026	-0.4612099014182619	-0.9297765055571472	1.1284559712880435	-1.150914582408629	0.4723184900881186
113	11.35684023663457	9.068142398367105	-2.6258718649092567	-0.49757218895690714	-0.9177546450979001	1.0831561181394067	-1.4415707279651724	0.5116783642621285
114	11.374507022915148	9.078157586987023	-2.6386051478844803	-0.5334434328176445	-0.9048270716057549	1.0264160756737617	-1.8381568251758142	0.5510382384361384
115	11.393529816018575	9.088623698696523	-2.650564345220385	-0.5687882324135695	-0.8910065430349844	0.9540664543227442	-2.3871386605339637	0.5903981126101483
116	11.413894876942067	9.099513095068477	-2.661452895568196	-0.6035717066947082	-0.8763066985787158	0.8601089770082129	-3.150004960244468	0.6297579867841582
117	11.435581742588788	9.110807365180058	-2.6709703410430574	-0.6377595285714033	-0.8607420452086945	0.7361251781254836	-4.183705110655334	0.669117860958168
118	11.458562876543605	9.122498994839715	-2.678812673494176	-0.6713179587910064	-0.8443279433586541	0.5714550713889276	-5.458819433448784	0.7084777351321779
119	11.482803353202724	9.134592954889797	-2.6846715009509743	-0.7042138792344474	-0.827080591765423	0.35659662534974357	-6.682924791441648	0.7478376093061878
120	11.50826051331607	9.147108203615245	-2.688232013302185	-0.7364148255998195	-0.8090170114827268	0.09355754644422906	-7.247390406589285	0.7871974834801977
121	11.534883517027916	9.160079107807832	-2.6891698490298332	-0.767889019440726	-0.7901550290834624	-0.19169882804905153	-6.758186099111467	0.8265573576542076
122	11.562612710624608	9.173556791399431	-2.6871471112172003	-0.7986053995277694	-0.7705132590670247	-0.4577001825546215	-5.565559073893339	0.8659172318282174
123	11.591378715021458	9.187610416414833	-2.681807969063917	-0.828533652502236	-0.7501110854890409	-0.6767598874110823	-3.5045210087229814	0.9052771060022273
124	11.621101137554568	9.202328384296253	-2.67277454274645	-0.85764424279172	-0.7289686428316496	-0.814697393354593	14.055523580386472	0.9446369801762372
125	11.651686805211474	9.217819411333776	-2.660431380297478	-0.8859084417581686	-0.7071067961331965	-0.2614737537807526	8.639255290713558	0.9839968543502471
126	11.68293308651402	9.234132712269549	-2.657213788156558	-0.9132983560495784	-0.6845471203969615	0.07856624741888316	0.7594732972735145	1.023356728524257
127	11.71520915827199	9.251116035584898	-2.658189674549054	-0.9397869551273669	-0.6613118792992345	0.10845902083808917	0.7720517882028712	1.062716602698267
128	11.748408847176858	9.268544007933498	-2.659578534342615	-0.96534809794225	-0.6374240032177557	0.1388468820775736	0.7821465419971914	1.102076476872277
