	x	y	theta	v	a	sigma	omega	t
0	7.965	24.75	-1.5370948061913945	0.0	0.9999999999999988	1.47499283986266	0.0	0.0
1	7.9651982199784985	24.74487437619426	-1.5127615006581145	0.10126487501983829	0.9991792972304582	1.47499283986266	-0.43607966216582156	0.1012925869051355
2	7.9660905012227765	24.729516713701074	-1.475954906673387	0.20236353331290466	0.996718536027908	1.4308212027851663	-0.42055594586318656	0.202585173810271
3	7.968517999677859	24.703998161583765	-1.42578865689371	0.30313003098148317	0.9926217554994168	1.388222003090348	-0.6007495260516474	0.3038777607154065
4	7.973703634654093	24.668488057717475	-1.3684423387928482	0.4033989693381468	0.9868956801232361	1.3273705295145426	-1.0832911554911486	0.405170347620542
5	7.982974485007824	24.623300090789108	-1.3117076042162212	0.503005766392079	0.9795497087112058	1.2176411660033908	-2.5223999821126757	0.5064629345256775
6	7.997399671966695	24.568874872825862	-1.2640439172454054	0.6017869269948656	0.9705958989814916	0.9621407466057302	-7.951052901331932	0.607755521430813
7	8.017423892469319	24.505657206173822	-1.2338833334937647	0.6995803112023359	0.9600489477669794	0.1567580296102355	-10.110982273690075	0.7090481083359486
8	8.042561546768189	24.43389016113459	-1.2300212212151906	0.7962254004119667	0.9479261668918134	-0.8674095210438014	2.6312492682557758	0.8103406952410841
9	8.071105286165839	24.353396653208616	-1.262813487016655	0.8915635608390041	0.9342474547556711	-0.600883475869929	7.476305047231695	0.9116332821462196
10	8.099613123744392	24.26377889901636	-1.2841585765904837	0.9854383038988371	0.9190352636724202	0.15641080285609094	0.8166380713637938	1.0129258690513552
11	8.129159570717146	24.163538127517782	-1.2787306023017841	1.0776955430682278	0.9023145630167663	0.2391301856697503	0.8353857859747033	1.1142184559564907
12	8.161915524857053	24.054592693647237	-1.26955360643623	1.168183846803783	0.884112798239383	0.3237485729949079	0.09657070296849334	1.2155110428616263
13	8.198363046504046	23.9372843309191	-1.2558620013414605	1.2567546871025292	0.8644598458177969	0.33353046931783403	-0.38286716119998815	1.3168036297667618
14	8.239165746588107	23.81203692108931	-1.240652980713562	1.343262683296599	0.8433879642169723	0.2947488641188617	0.33390175592041393	1.4180962166718973
15	8.284633498407183	23.679356043305354	-1.226409018324295	1.4275658406818648	0.8209317409400873	0.3285706367482076	0.2819703723968668	1.5193888035770329
16	8.334868426118378	23.539301383717877	-1.2094093976424192	1.5095257835888318	0.7971280357564156	0.35713214519889064	-0.127898073296452	1.6206813904821684
17	8.390378034577873	23.392445558950158	-1.1897358386072463	1.5890079825132302	0.7720159201994963	0.3441770184945104	-0.289814552130928	1.721973977387304
18	8.451654309356416	23.23950069699626	-1.1698416371786113	1.6658819749334868	0.7456366134349026	0.3148209527864154	-0.022031999754793218	1.8232665642924395
19	8.519000571702573	23.080634829888204	-1.1508930497529097	1.7400215794526324	0.7180334146028751	0.3125892745365591	-0.0702891679326348	1.924559151197575
20	8.592360864367787	22.916318068389756	-1.1312510690228308	1.8113051029131426	0.689251631746873	0.30546950288525304	-0.7473891428362242	2.0258517381027104
21	8.671832890337143	22.747309601971917	-1.111300769074954	1.8796155401447654	0.6593385074447008	0.22976452318256005	0.12192556651257104	2.127144325007846
22	8.757765710045609	22.573645026295473	-1.0959450693691155	1.9448407660174516	0.6283431412642791	0.24211467922449253	-0.5316356382514588	2.2284369119129814
23	8.84927953080117	22.395631681129334	-1.0791690507671052	2.0068737194841653	0.5963164091713425	0.18826393013503945	-0.3887228557082446	2.329729498818117
24	8.946666908407185	22.213762441756323	-1.0658141508876529	2.0656125793114812	0.5633108800213472	0.14888918649119962	-0.034145147793326586	2.4310220857232525
25	9.049275864147287	22.02814206514563	-1.0549919014316147	2.120960931209519	0.52938072927266	0.14543053614095539	-0.5440088769973619	2.532314672628388
26	9.156503808046656	21.839028910119552	-1.044141522109408	2.172827926086895	0.49458165006266175	0.09032646969053491	0.06451279753967962	2.6336072595335236
27	9.268383611388252	21.64660784130849	-1.037267618987142	2.2211284291709212	0.4589707617927226	0.09686113784181632	-0.4066022820959197	2.734899846438659
28	9.383956532552144	21.45094272264001	-1.0297294810789908	2.2657831597482954	0.4226065163721006	0.05567534084678894	0.024093381629416433	2.8361924333437947
29	9.50325148678798	21.25240922359352	-1.0253187563698751	2.306718821296901	0.38554860227465354	0.0581158217993252	-0.24559236767870432	2.93748502024893
30	9.625466318740044	21.051033647601262	-1.0206310755975778	2.3438682217951277	0.34785784656584773	0.033239135552992044	-0.005371463280378165	3.0387776071540658
31	9.750494357459576	20.84718334243958	-1.0179088597399744	2.377170384011223	0.30959611506087614	0.032695046141856594	-0.1382214948024807	3.1400701940592013
32	9.877742742451696	20.64097454116118	-1.0151931914720906	2.406570645591662	0.27082621077776536	0.01869423336741858	-0.011725524707875808	3.241362780964337
33	10.007017385374901	20.432749571043225	-1.0136216113197702	2.4320207487842365	0.2316117708521556	0.017506524636937755	-0.07705668236557131	3.3426553678694724
34	10.137874935757694	20.222712319867085	-1.0121343364138398	2.453478919648596	0.19201716208295264	0.009701253941801697	-0.008476516696294513	3.443947954774608
35	10.27008920841778	20.01119898071582	-1.0113029489085663	2.470909936624225	0.15210737528030802	0.008842645637689453	-0.04473173268782792	3.5452405416797435
36	10.403307312318136	19.79847342382847	-1.0105397633887838	2.484285188343308	0.11194791858934344	0.004311652716990351	-0.004197750213094303	3.646533128584879
37	10.537298120698102	19.584876559932084	-1.010165629042335	2.4935827205935865	0.07160470996471748	0.003886451738724445	-0.030506012104814354	3.7478257154900145
38	10.671759369656273	19.37070779899367	-1.009827128857393	2.4987872723541256	0.031143968972531095	0.00079641885646842	-0.0013832763804849772	3.84911830239515
39	10.806463568291289	19.15631326024986	-1.0097576183312373	2.499999999999997	0.0	0.0006563032134843241	-0.030150035444137056	3.9504108893002856
40	10.94119940620337	18.941901451085876	-1.0097003091417263	2.499999999999997	0.0	-0.002397671871933832	-5.909266764240884e-05	4.051703476205421
41	11.07594753816387	18.72749735352894	-1.009909677117466	2.499999999999997	0.0	-0.002403657521106457	-0.04391164736936719	4.152996063110556
42	11.210650777527423	18.513065049192676	-1.0101195677702604	2.499999999999997	0.0	-0.00685158187841573	0.0001416074049276669	4.254288650015691
43	11.345309007927174	18.29860447449605	-1.010717865453915	2.499999999999997	0.0	-0.006837238098045683	-0.07582850805165989	4.355581236920826
44	11.479838904053688	18.084063370750247	-1.0113149105628412	2.499999999999997	0.0	-0.01451810383975518	-0.001157584235378199	4.456873823825961
45	11.614240697698042	17.869441965342023	-1.0125827378249133	2.499999999999997	0.0	-0.01463535854151724	-0.13379387087862823	4.558166410731096
46	11.748370263404926	17.6546503616327	-1.0138608060836096	2.499999999999997	0.0	-0.028187685834865115	-0.00546142317251073	4.659458997636231
47	11.88222527719766	17.439687384782104	-1.0163228406129325	2.499999999999997	0.0	-0.028740887516192377	-0.22918178685365545	4.760751584541366
48	12.015550515417612	17.22439570458101	-1.018833220535331	2.499999999999997	0.0	-0.05195530357814042	-0.016103556213700597	4.8620441714465015
49	12.148335221337366	17.008769435887057	-1.0233741063161523	2.499999999999997	0.0	-0.053586474445398415	-0.37438063695764456	4.963336758351637
50	12.28013881535944	16.79254343617714	-1.0280578253072779	2.499999999999997	0.0	-0.09150845765003046	-0.03919524600906961	5.064629345256772
51	12.410929629638476	16.575700151550567	-1.0360708321667376	2.499999999999997	0.0	-0.0954786455126723	-0.5743043548682375	5.165921932161907
52	12.539976165872076	16.357820085290623	-1.0444335691542754	2.499999999999997	0.0	-0.15365141928816078	-0.08264047050013895	5.267214519067042
53	12.667201156642347	16.1388598294243	-1.0579571879596186	2.499999999999997	0.0	-0.16202228632817736	-0.8060573695167038	5.368507105972177
54	12.791444306330089	15.918215377820555	-1.0722302822271768	2.499999999999997	0.0	-0.24366992248047267	-0.14100049955949975	5.469799692877312
55	12.912541683062896	15.69579063895422	-1.0939391974269321	2.499999999999997	0.0	-0.25795222783577076	-0.9655480617936034	5.571092279782447
56	13.028753279225995	15.470845807709106	-1.1169771523660201	2.499999999999997	0.0	-0.3557550887960841	-0.15944455885027944	5.672384866687582
57	13.139797043044373	15.243191748411359	-1.1494225849377233	2.499999999999997	0.0	-0.37190564062997694	-0.8289809038254803	5.773677453592717
58	13.243319862908114	15.012228095715065	-1.183482837875686	2.499999999999997	0.0	-0.45587526087341684	-0.14739410442294032	5.874970040497852
59	13.339019685970644	14.777622515225666	-1.2262983394394387	2.499999999999997	0.0	-0.4708051910049821	-0.5417217689309375	5.9762626274029875
60	13.424430744853925	14.539579931698439	-1.27074301746523	2.499999999999997	0.0	-0.5256775903628226	-0.13164025044872998	6.077555214308123
61	13.499355538896012	14.297414169055973	-1.3214002572303107	2.499999999999997	0.0	-0.5390117718716143	-0.29067100408746244	6.178847801213258
62	13.561686044276968	14.052691671568915	-1.3736259382132427	2.498787272354126	-0.03114396897252787	-0.5684545898139465	-0.1048945841967832	6.280140388118393
63	13.611299885750062	13.804331674909799	-1.4293788195894903	2.4935827205935874	-0.07160470996471403	-0.5790796335995771	-0.14766339080209076	6.381432975023528
64	13.646685308957672	13.555782405313739	-1.4863275575647852	2.484285188343309	-0.11194791858933979	-0.5940368404451049	-0.0690882975340695	6.482725561928663
65	13.667895905686693	13.305274114117106	-1.5449351401952462	2.4709099366242264	-0.15210737528030438	-0.6010349728272024	-0.05250547979697808	6.584018148833798
66	13.674349197188205	13.055793961432519	-1.6041108759006062	2.4534789196485978	-0.1920171620829488	-0.6063533887025336	-0.022623245368682696	6.685310735738933
67	13.666095578404876	12.808137447167015	-1.6635416525079505	2.4320207487842387	-0.23161177085215157	-0.6086449557501171	-0.01145457531499605	6.786603322644068
68	13.64338178454256	12.56393505099139	-1.7227413891904428	2.406570645591665	-0.2708262107777612	-0.6098052193156728	0.029706036107479253	6.887895909549203
69	13.606667201792991	12.324166812081023	-1.7814666389217342	2.3771703840112264	-0.3095961150608718	-0.6067962180716489	0.009053308432940239	6.9891884964543385
70	13.556622479113702	12.090141614128786	-1.8391034580516912	2.3438682217951317	-0.34785784656584345	-0.6058791850404263	0.09225968654090169	7.090481083359474
71	13.494112512985687	11.862780108094539	-1.895821653245644	2.306718821296906	-0.3855486022746491	-0.5965339627236415	0.025373892846851646	7.191773670264609
72	13.420098722618967	11.643138948065141	-1.9505336813518692	2.2657831597483007	-0.42260651637209606	-0.5939637754773301	0.15707501393630774	7.293066257169744
73	13.335742330418187	11.431776739738101	-2.0039780914797345	2.221128429170927	-0.458970761792718	-0.5780532409775614	0.10013103806201862	7.394358844074879
74	13.242266796480274	11.229657714172568	-2.054590891002471	2.1728279260869017	-0.49458165006265703	-0.567910709102763	0.15298921901738294	7.495651430980014
75	13.140922499314968	11.036783868295068	-2.103012875202406	2.1209609312095266	-0.5293807292726552	-0.552414035339896	0.3031602680950511	7.596944017885149
76	13.033885531182815	10.85502590720408	-2.1486793233118884	2.0656125793114897	-0.5633108800213424	-0.521706147537694	-0.028540414731937868	7.698236604790284
77	12.921061365177144	10.682021691330895	-2.1901525279721064	2.006873719484174	-0.5963164091713378	-0.5245970799772374	0.648026242119916	7.799529191695419
78	12.805129016578329	10.519409479980787	-2.2307164338891234	1.9448407660174611	-0.6283431412642744	-0.45895682553049766	-0.08104203718260962	7.900821778600554
79	12.686281936658153	10.3662514683025	-2.2642842190981614	1.8796155401447752	-0.6593385074446964	-0.4671657831247864	0.4120102844444519	8.00211436550569
80	12.566710379089136	10.22240024557724	-2.297399503766354	1.8113051029131533	-0.6892516317468687	-0.42543219558188733	0.9013648249284094	8.103406952410825
81	12.447177201912618	10.087914814573923	-2.326065639288999	1.740021579452643	-0.7180334146028708	-0.33413062071959454	-0.4411006195459968	8.20469953931596
82	12.328849715967628	9.96223339540099	-2.3471639315900963	1.6658819749334979	-0.7456366134348987	-0.37881084355886635	0.6661234730035774	8.305992126221096
83	12.21337305455065	9.844652032625008	-2.370324255224961	1.589007982513242	-0.7720159201994925	-0.31133747378010107	1.1376592462338628	8.40728471312623
84	12.10081518605666	9.735230884233555	-2.388184838157193	1.509525783588844	-0.7971280357564118	-0.19610102571252702	-0.27031559856174253	8.508577300031366
85	11.992277001825542	9.633424008067879	-2.3986589591140026	1.4275658406818776	-0.8209317409400836	-0.22348199197165594	-0.09386532603370991	8.609869886936501
86	11.88890133934381	9.538475156520144	-2.4099916741653313	1.343262683296613	-0.8433879642169687	-0.23298985366630434	0.8852990694558913	8.711162473841636
87	11.790899561247452	9.450488686196495	-2.4211253137789197	1.2567546871025437	-0.8644598458177936	-0.14331562073640824	0.8306589045584095	8.812455060746771
88	11.698584935620799	9.369446130633646	-2.4274598003267687	1.1681838468037984	-0.8841127982393798	-0.059176031457901235	1.0049787344505627	8.913747647651906
89	11.612614956316165	9.294932468917422	-2.4298771754610384	1.0776955430682438	-0.9023145630167633	0.042620864339245085	-0.11317073853679217	9.015040234557041
90	11.533478427905703	9.226675952654816	-2.428271857418851	0.9854383038988539	-0.9190352636724173	0.031157507470888742	-1.2342244120539878	9.116332821462176
91	11.46160888455801	9.164485843917152	-2.4271990731906423	0.8915635608390214	-0.9342474547556684	-0.09386027604752908	-1.0428397944752867	9.217625408367311
92	11.397020557765263	9.108475028699521	-2.430130585838749	0.7962254004119848	-0.947926166891811	-0.19949221655755028	-0.8284057884544623	9.318917995272447
93	11.339633821795625	9.059003410284573	-2.4357534420796845	0.6995803112023548	-0.9600489477669772	-0.28340358187729087	-0.6125263272513319	9.420210582177582
94	11.28946477120314	9.016243341648357	-2.4428700442345246	0.601786926994885	-0.9705958989814896	-0.3454479581120796	-0.3944749049990736	9.521503169082717
95	11.246615453270032	8.980245325803121	-2.4504345095566844	0.503005766392099	-0.9795497087112042	-0.3854053417085932	-0.1552167001943811	9.622795755987852
96	11.21123721135551	8.95097743633072	-2.4575622391580225	0.4033989693381673	-0.9868956801232348	-0.40112764280216084	-0.1876285040111421	9.724088342892987
97	11.183498018298627	8.928360306213504	-2.463538180724989	0.30313003098150426	-0.9926217554994158	-0.42013301935058994	2.6743856664797994	9.825380929798122
98	11.163555413870718	8.91229756232742	-2.4682681224630696	0.20236353331292625	-0.9967185360279074	-0.14923757681083719	0.0	9.926673516703257
99	11.14833007726962	8.900152620190532	-2.4703936226377126	0.0	0.0	-0.14923757681083719	0.0	10.12925869051355
100	11.14833007726962	8.900152620190532	-2.4703936226377126	0.0	-1.0000000008013696	1.4192890300909615	0.0	0.0
101	11.148962437044357	8.900654370095376	-2.472691570671855	-0.04017556285901061	-0.9995065611666811	1.4192890300909615	-1.2883976702743716	0.04018217220304106
102	11.150861657493037	8.902155641298206	-2.4763376231975247	-0.08031147728793188	-0.9980267292279618	1.3675184130379998	-0.7092974927789134	0.08036434440608212
103	11.154034065723494	8.904644585305876	-2.481736240193808	-0.12036813398488817	-0.9955619654006724	1.3390172990399722	-0.507471520176821	0.12054651660912317
104	11.15848986943003	8.90810173140108	-2.4888026177089264	-0.1603060018658164	-0.9921147021091364	1.3186259910280882	-0.4335206522820781	0.16072868881216423
105	11.164242639902136	8.912500392873277	-2.497423397285976	-0.20008566707687334	-0.9876883413860296	1.301206189524515	-0.41862099566954447	0.20091086101520528
106	11.171308598439676	8.91780724219876	-2.5074566995852967	-0.2396678718911509	-0.9822872515149849	1.284385088588713	-0.43882245279419924	0.24109303321824632
107	11.179705729396412	8.923983068242599	-2.518732496295828	-0.27901355345131296	-0.9759167627196236	1.2667522492239756	-0.48548982344345093	0.28127520542128737
108	11.189452751441724	8.930983727791144	-2.53105347809278	-0.3180838823199194	-0.9685831619032688	1.2472442135355468	-0.556790520773592	0.3214573776243284
109	11.200567986771075	8.938761299384373	-2.544196539780738	-0.35684030079939294	-0.9602936864445302	1.2248711609488014	-0.6550047873837975	0.36163954982736946
110	11.213068174838783	8.947265439580088	-2.5579149375877575	-0.39524456098381167	-0.9510565170548854	1.1985516457883294	-0.7859820051591979	0.4018217220304105
111	11.226967281372701	8.956444931144317	-2.5719410835668572	-0.433258762504974	-0.9408807697053055	1.166969181508531	-0.9597614608699991	0.44200389423345154
112	11.242275353572657	8.966249400562049	-2.5859898394459524	-0.47084538993548697	-0.9297764866298923	1.1284038812140105	-1.1922173674939507	0.4821860664364926
113	11.25899746741801	8.976631170556626	-2.599762072746584	-0.5079673498119633	-0.9177546264154053	1.0804979976499123	-1.507930710475083	0.5223682386395336
114	11.277132802480175	8.987547204077726	-2.612948158654766	-0.5445880072417918	-0.9048270531864601	1.0199060661713484	-1.9444732803805793	0.5625504108425747
115	11.296673863968321	8.998961091355152	-2.6252310667700973	-0.5806712220573527	-0.8910065248970693	0.9417729059748837	-2.5571054559764623	0.6027325830456158
116	11.317605852190006	9.01084503235293	-2.636288671314457	-0.6161813844820007	-0.8763066807400827	0.8390228542015016	-3.4172621565304455	0.6429147552486569
117	11.339906158036666	9.023181773511268	-2.6457949677223604	-0.6510834502726148	-0.8607420276869504	0.7017098377648596	-4.579328663065998	0.683096927451698
118	11.36354394152213	9.035966469065785	-2.6534199618167325	-0.6853429753040354	-0.8443279261710931	0.5177024648512197	-5.955378734031116	0.7232790996547391
119	11.388479730500544	9.049208451405754	-2.65882811051713	-0.7189261495612574	-0.8270805749290093	0.2784024110260525	-7.097182410853882	0.7634612718577802
120	11.414664959464172	9.062932908930557	-2.6616753274447773	-0.751799830505833	-0.8090169950140779	-0.006777794763272538	-7.304105130382196	0.8036434440608213
121	11.442041353950067	9.07718248014825	-2.661604722892991	-0.783931575783556	-0.7901550129988334	-0.30027260490140595	-6.419182114180834	0.8438256162638624
122	11.470540054138985	9.092018775329976	-2.6582414386937963	-0.8152896752411481	-0.7705132433822911	-0.5582092860161016	-5.0580130098045855	0.8840077884669035
123	11.500080361240144	9.107523827272301	-2.651187195734796	-0.8458431822203526	-0.7501110702196838	-0.7614512357812917	1.3472417837407522	0.9241899606699446
124	11.530567982672867	9.12380144491213	-2.6400155469931117	-0.8755619440985491	-0.7289686279927398	-0.7073161344278885	18.198208970953456	0.9643721328729857
125	11.561892649720651	9.140978390171572	-2.6296444726699377	-0.9044166320457517	-0.7071067817393802	0.023927432229890588	1.8138356735567713	1.0045543050760268
126	11.593743436578613	9.158875960153463	-2.6299443771406747	-0.9323787699686242	-0.6845471064624454	0.09681128961276782	0.8096467872275311	1.044736477279068
127	11.626887087110298	9.177486938819394	-2.631199001070696	-0.9594207626129448	-0.6613118658377722	0.12934465624078345	0.8214497330745312	1.084918649482109
128	11.660985693465351	9.196577918178036	-2.6329281182940307	-0.9855159227967918	-0.637423990242634	0.1623522908713264	0.8302353897169886	1.1251008216851501
129	11.696016145486004	9.21611113347356	-2.635164762335641	-1.010638497747569	-0.6129070541262258	0.19571295226999338	0.8358438893136134	1.1652829938881912
