	x	y	theta	v	a	sigma	omega	t
0	8.437	16.0	-1.5707963267948966	0.0	-0.9999999921869119	1.4896306174618315	0.0	0.0
1	8.437005359734462	16.002280828872706	-1.5826294787646338	-0.06753171298585589	-0.9995065525564841	1.4896306174618315	-0.35030951543440075	0.06754282331433067
2	8.437086304165293	16.00912098887084	-1.601965237974022	-0.1349967803241953	-0.9980267206305424	1.465969723755517	-0.12820901667726428	0.13508564662866135
3	8.437441459072657	16.02051182272947	-1.631849205380314	-0.2023286221387096	-0.9955619568245353	1.4573101247947804	-0.041651084568375435	0.20262846994299202
4	8.438414585290166	16.036431085589257	-1.6731944349774959	-0.26946079003059764	-0.992114693562765	1.4544968929489284	-0.010594342328225575	0.2701712932573227
5	8.440510466688346	16.056827467355973	-1.7269143061466494	-0.33632703265511305	-0.9876883328778779	1.4537813211569215	-0.01355626482299454	0.3377141165716534
6	8.444408737990294	16.081594307869704	-1.7935509136222927	-0.40286136110364285	-0.9822872430534689	1.4528656927571797	-0.043568816843628747	0.4052569398859841
7	8.450963269158466	16.110530905096223	-1.8727445525622792	-0.46899811402679303	-0.9759167543131135	1.449922931859096	-0.0985468126428763	0.4727997632003148
8	8.461168380099119	16.143295021134207	-1.962673452221657	-0.5346720224342136	-0.9685831535600802	1.4432668019045678	-0.1782910721333899	0.5403425865146455
9	8.47607290778329	16.17936155453366	-2.0597902896145195	-0.5998182741072116	-0.9602936781729161	1.4312245195209397	-0.2829820991392472	0.6078854098289762
10	8.496640691729256	16.218015785096608	-2.1592323819397863	-0.664372577560586	-0.951056508863028	1.412111109597659	-0.4118915162185205	0.6754282331433069
11	8.523594858796375	16.258409089554632	-2.255924159916827	-0.7282712254905621	-0.940880761601308	1.3842907936930398	-0.5621569560543882	0.7429710564576376
12	8.557315710382472	16.29967409843438	-2.3458130097267276	-0.7914511576462083	-0.929776478621771	1.3463211257353362	-0.7278397093876985	0.8105138797719683
13	8.59784272810156	16.341051435157123	-2.4265468089559947	-0.8538500230622909	-0.917754618511082	1.2971607768430091	-0.8993952087797378	0.878056703086299
14	8.644965095952138	16.381969701256995	-2.497399664398234	-0.9154062415921485	-0.9048270453937535	1.2364130851666437	4.790037207815521	0.9455995264006297
15	8.698339042093851	16.422057891434346	-2.558765699512643	-0.9760590646798628	-0.891006517223688	1.559945721963197	-44.23334246769495	1.0131423497149603
16	8.757580965241646	16.46111113689088	-4.6537767589169	-1.0357486353117484	-0.8763066731936171	-1.427699112934604	0.16979271374852475	1.080685173029291
17	8.866891841996704	14.598262910234238	-4.486349627431394	-1.0944160470879993	-0.8607420202748652	-1.4162308336698266	14.623167376984327	1.1482279963436217
18	8.883362433318288	14.526642124035957	-4.322753428677675	-1.1520034023561931	-0.8443279189007206	-0.4285408232302894	0.4088566741746682	1.2157708196579524
19	8.913497777165551	14.453253864983747	-4.310495575511036	-1.2084538693492841	-0.827080567807541	-0.4009254891256249	0.09655570988596748	1.2833136429722831
20	8.946162693342844	14.37640009733502	-4.2985650685853924	-1.2637117382716956	-0.8090169880485585	-0.39440384387280725	0.0788809332973904	1.3508564662866138
21	8.981229034117376	14.296555986190153	-4.286314843511153	-1.317722476278163	-0.790155006196153	-0.3890760029322321	-0.5893206733368168	1.4183992896009445
22	9.018763911910893	14.213857809455556	-4.273732464690972	-1.3704327812910682	-0.7705132367491787	-0.4288803850469031	0.23038647554304242	1.4859421129152752
23	9.058815022583442	14.1284865266954	-4.259137318744907	-1.4217906346031535	-0.750111063762701	-0.41331943203528804	0.7423760544293225	1.553484936229606
24	9.101611001364084	14.040622727688392	-4.244613893302121	-1.4717453522137078	-0.7289686217182737	-0.36317725735817835	0.7923274485757388	1.6210277595439366
25	9.147182547427256	13.95041241856389	-4.231587114413894	-1.5202476348475538	-0.7071067756536374	-0.3096612244919328	0.48669957739911	1.6885705828582673
26	9.195420615716902	13.857936861562845	-4.220258335424829	-1.5672496166074819	-0.6845471005714461	-0.2767881609285053	-1.431583959861217	1.756113406172598
27	9.2461806479949	13.763257933585248	-4.209888778410324	-1.6127049122121118	-0.6613118601473438	-0.37348138338904135	1.0185966666419572	1.8236562294869287
28	9.299328160784581	13.666547548386331	-4.19516964478257	-1.6565686627725653	-0.637423984758405	-0.30468248870547743	1.6786239688237112	1.8911990528012594
29	9.355368087427834	13.568037537457775	-4.183036432781243	-1.6987975800627722	-0.6129070488536214	-0.19130348656801693	1.6226170729654577	1.9587418761155901
30	9.414013808047425	13.46779660221502	-4.17537359900276	-1.7393499892397244	-0.5877852476887663	-0.08170734830189494	-1.8744447408848213	2.0262846994299206
31	9.474795991904548	13.36570684015752	-4.172056203289989	-1.7781858699715154	-0.562083373448598	-0.2083126382479544	0.7684723657692741	2.093827522744251
32	9.537220040544934	13.261646304711546	-4.1633019254260475	-1.8152668959325744	-0.5358267907799678	-0.15640784502485477	2.516080148591364	2.1613703460585816
33	9.601839954440015	13.15603228918396	-4.156634747740403	-1.850556472627123	-0.5090414117599745	0.013535311896146133	2.125276925361841	2.228913169372912
34	9.668387467044388	13.048879158785263	-4.15721816375434	-1.8840197735035256	-0.4817536703238735	0.15708251575988447	-2.0879687974014343	2.2964559926872425
35	9.73602701597558	12.939825751992494	-4.164168203480882	-1.9156237743238886	-0.4539904961779742	0.016055208191164287	1.2355274871172457	2.363998816001573
36	9.803984552026483	12.828540334763854	-4.164884585522792	-1.945337285754999	-0.42577928822327094	0.09950622295352314	2.447581191968522	2.4315416393159035
37	9.872876849877716	12.71554226255731	-4.16940796551885	-1.973130984148429	-0.39714788751603536	0.2648227669501314	1.0360652433018083	2.499084462630234
38	9.942193534360287	12.6006823710603	-4.181870731705139	-1.9989774404794378	-0.3681245497920554	0.33480153862058426	-1.4671385707465074	2.5666272859445645
39	10.01092874877833	12.483509432373477	-4.1980680012109	-2.022851147416106	-0.33873791758163535	0.23570685735901356	1.64162013106298	2.634170109258895
40	10.078499159099957	12.363925401660849	-4.209383301397462	-2.0447285444919943	-0.3090169919428768	0.3465865158206485	1.6164662034673438	2.7017129325732254
41	10.145407773576256	12.24232016761053	-4.226583065940755	-2.064588041357478	-0.2789911038411352	0.45576720699502987	-0.6276609031357401	2.769255755887556
42	10.210821146197315	12.118434213474101	-4.250154025139137	-2.0824100390868163	-0.2486898852028983	0.4133732175132195	0.24388843646227795	2.8367985792018864
43	10.27379722092963	11.992035986464193	-4.271428711207426	-2.098176949519926	-0.21814323967265242	0.42984613108559944	1.1019587889735418	2.904341402516217
44	10.334490548571308	11.863435937342716	-4.293831439182107	-2.1118732126197712	-0.18738131310159598	0.504275538868913	0.3387973859009471	2.9718842258305473
45	10.392651349419124	11.732691537789986	-4.3209760451441115	-2.123485311828242	-0.15643446379732287	0.5271588708441777	-0.4076230718832137	3.039427049144878
46	10.447538879469693	11.599697774748117	-4.349765483401025	-2.1330017874053646	-0.12533323256383894	0.49962685772112514	0.6183347415801345	3.1069698724592083
47	10.498609515239547	11.465089183029736	-4.37688115414967	-2.1404132477386826	-0.09410831256147537	0.5413909319207844	0.4441165689891177	3.174512695773539
48	10.546290838100871	11.328345247312129	-4.406857996003282	-2.145712378611643	-0.06279051901644513	0.571387818870983	-0.2626171543429252	3.2420555190878693
49	10.589960004610983	11.189891835293244	-4.438988330983185	-2.1488939504218463	-0.03141075880993507	0.5536499148158865	0.19510943891868154	3.3095983424021997
50	10.629107615538134	11.050289699121798	-4.469925596592416	-2.1499548233420307	0.0	0.5668281571757292	0.2526563481295275	3.3771411657165302
51	10.663979532328346	10.90929575960325	-4.501797702779389	-2.1488939504218463	0.0314107588099314	0.5838932802566859	-0.022386352027671818	3.4446839890308607
52	10.694326722371791	10.767327682664929	-4.534867497681705	-2.1457123786116434	0.06279051901644168	0.5823812428370284	-0.044585111173566346	3.512226812345191
53	10.719895369764274	10.624812579959311	-4.567779884623212	-2.1404132477386835	0.09410831256147192	0.5793698385505824	0.014114711562517233	3.5797696356595217
54	10.74069937897438	10.481953030451281	-4.600396180022419	-2.1330017874053655	0.12533323256383552	0.5803231860197823	0.032924810397731145	3.647312458973852
55	10.75677824816024	10.338983211054362	-4.6329672145812655	-2.1234853118282433	0.15643446379731946	0.5825470206711341	-0.03703443273202266	3.7148552822881826
56	10.768142095870765	10.196201898503322	-4.665550424025863	-2.1118732126197726	0.1873813131015926	0.5800456105245686	-0.20318926248512162	3.782398105602513
57	10.774768271791514	10.054836960857545	-4.697779305982248	-2.0981769495199276	0.21814323967264906	0.5663216340691669	-0.16669232524574043	3.8499409289168436
58	10.77683223572258	9.913573232030112	-4.728849058954246	-2.082410039086818	0.24868988520289476	0.555062763797239	0.21919977581391925	3.917483752231174
59	10.774524506701306	9.77338431412613	-4.758923956487296	-2.06458804135748	0.2789911038411316	0.5698681355255794	-0.36782932003919244	3.9850265755455045
60	10.768078517809984	9.63496509012125	-4.7897363390352075	-2.0447285444919965	0.3090169919428735	0.5450239047523419	-0.5107842563955325	4.052569398859835
61	10.757459516209959	9.497949206555047	-4.818609190164745	-2.0228511474161084	0.3387379175816323	0.5105240939708765	0.09310162838933109	4.120112222174166
62	10.743047782424133	9.36278197468341	-4.84499495010656	-1.9989774404794403	0.36812454979205256	0.5168124408074536	0.09887037087743739	4.187655045488497
63	10.725292188981475	9.229670337343324	-4.871455266647222	-1.9731309841484315	0.3971478875160328	0.5234904247986507	-0.8169074131884254	4.255197868802828
64	10.704422029829557	9.099574623741592	-4.897981025867462	-1.9453372857550015	0.42577928822326844	0.46831419172549776	-0.8250099813387916	4.322740692117159
65	10.680349384884671	8.971359975353888	-4.920900002808705	-1.9156237743238913	0.45399049617797194	0.4125906883233723	0.7285462957987224	4.39028351543149
66	10.653768360784245	8.845732644440234	-4.940429120661755	-1.8840197735035282	0.4817536703238713	0.4617987620568157	-0.3205175560546257	4.457826338745821
67	10.625255369282682	8.722872597204088	-4.962267807469827	-1.8505564726271253	0.5090414117599729	0.44015010139907695	-1.2233925552020959	4.5253691620601515
68	10.594634918365315	8.602892546469612	-4.982566645720686	-1.8152668959325762	0.5358267907799663	0.35751871419899395	-1.227665667195449	4.592911985374482
69	10.562232258773209	8.485894071729948	-4.998360814746663	-1.7781858699715172	0.5620833734485968	0.27459870895054156	1.0614909748413364	4.660454808688813
70	10.528707663991236	8.371876920213593	-5.010028078025001	-1.739349989239726	0.5877852476887653	0.34629480631400683	-0.05448951491713724	4.727997632003144
71	10.4946545604587	8.260864834766533	-5.0246457142781065	-1.6987975800627735	0.6129070488536206	0.34261443063547503	-1.4697701179599634	4.795540455317475
72	10.459838250343001	8.153013498721062	-5.038758184632684	-1.6565686627725666	0.6374239847584042	0.2433420072454219	-1.4951831741860568	4.863083278631806
73	10.424432913703617	8.048410400378405	-5.048336750473399	-1.6127049122121133	0.6613118601473431	0.1423531142888126	-3.6101219685701373	4.930626101946137
74	10.3890221213466	7.947000304957294	-5.0537200757030725	-1.567249616607483	0.6845471005714455	-0.10148471597750476	-4.530081795048887	4.998168925260468
75	10.354113249983675	7.848730574116625	-5.050002887304662	-1.5202476348475547	0.707106775653637	-0.4074592302599588	7.948286991782081	5.065711748574799
76	10.320658781853178	7.753433488516533	-5.034720511714635	-1.4717453522137087	0.7289686217182733	0.12939051367757312	7.518218302329497	5.13325457188913
77	10.289698183105303	7.660731253267861	-5.039180661809661	-1.4217906346031544	0.7501110637627006	0.6371922041103834	6.761644800612615	5.200797395203461
78	10.259428993672064	7.571426872710356	-5.0636915625680725	-1.3704327812910688	0.7705132367491784	1.0938927841924255	-36.407796784597025	5.268340218517792
79	10.228185848993583	7.486180790441079	-5.125467034858428	-1.3177224762781634	0.7901550061961528	-1.3651926012936773	0.0	5.335883041832123
80	10.169144703894617	7.351474576258512	-2.03508077430506	0.0	0.0	-1.3651926012936773	0.0	6.7542823314330676
81	10.169144703894617	7.351474576258512	-2.03508077430506	0.0	-0.9999999983045588	1.4268089450032018	0.0	0.0
82	10.169700127252403	7.352581585945694	-2.038808822436297	-0.04976399724141744	-0.999506558671107	1.4268089450032018	-1.0158114129563027	0.04977218411790095
83	10.171375742499736	7.3558965633384465	-2.044699477627228	-0.09947888342563581	-0.9980267267360966	1.3762497923284756	-0.5915110858697087	0.0995443682358019
84	10.174199136924958	7.361401479969781	-2.053364468011999	-0.14909559596214025	-0.995561962914985	1.346808993654789	-0.45976497849641457	0.14931655235370284
85	10.178214755916969	7.3690666388494055	-2.064597084167966	-0.19856516914595365	-0.9921146996320892	1.3239254864941026	-0.4325332705147317	0.1990887364716038
86	10.183481576709566	7.3788511731315625	-2.0781200390093235	-0.2478387824808755	-0.9876883389200766	1.3023973609169255	-0.4603061260585432	0.24886092058950476
87	10.190069881892597	7.390703833961575	-2.093585740980344	-0.29686780885941777	-0.9822872490625688	1.279486919660142	-0.5293078307951863	0.2986331047074057
88	10.198057214674463	7.404564195019007	-2.110578471621927	-0.3456038625518889	-0.975916760283174	1.2531421128507572	-0.6399831559791237	0.3484052888253067
89	10.207523650578002	7.42036440559615	-2.1286190849175837	-0.39399884695726756	-0.9685831594851995	1.2212887533790089	-0.8023730301078645	0.39817747294320766
90	10.21854657796879	7.438031600702094	-2.1471723865059626	-0.442005002068741	-0.9602936840472367	1.1813528951932422	-1.0375388527908633	0.4479496570611086
91	10.231195227566133	7.457491025886134	-2.1656567210274096	-0.4895749516070657	-0.9510565146807427	1.1297123203826596	-1.383680580543388	0.4977218411790096
92	10.245525210491659	7.478669863244751	-2.183454625215556	-0.5366617497752351	-0.9408807673566655	1.06084351576749	-1.90852128490272	0.5474940252969105
93	10.261573299323164	7.501501667372933	-2.1999228595088858	-0.5832189275883133	-0.9297764843090818	0.9658522429823789	-2.7285907732090946	0.5972662094148115
94	10.27935260927059	7.525931253800549	-2.2143998605568145	-0.6292005387327131	-0.9177546241247233	0.8300443206358101	-4.014244698285642	0.6470383935327124
95	10.2988482113353	7.551919843876349	-2.226208737068789	-0.6745612049096604	-0.904827050928176	0.6302465944184293	-5.842204432570107	0.6968105776506134
96	10.320013051735025	7.5794502667891495	-2.23465434434946	-0.7192561606180963	-0.8910065226734203	0.33946731974613287	-7.578137466862547	0.7465827617685143
97	10.342763883276351	7.608532045708024	-2.2390136399792784	-0.7632412973328223	-0.8763066785532718	-0.03771313352531339	-7.680501831995798	0.7963549458864153
98	10.366976754615544	7.639206230212812	-2.2385193871711513	-0.806473207034289	-0.8607420255391439	-0.41998848482528395	-6.037416945221564	0.8461271300043163
99	10.392481466794077	7.6715498466878165	-2.2323384086644755	-0.8489092250470713	-0.8443279240644189	-0.7204839126193868	0.10880527440147761	0.8958993141222172
100	10.419054305245611	7.705679774189465	-2.2195473324698916	-0.8905074721447512	-0.8270805728655544	-0.7150684364688777	14.87999817510258	0.9456714982401182
101	10.446408314488561	7.741755650968868	-2.2062753376046627	-0.9312268958796589	-0.8090169929958865	0.025541572376358266	1.9125849442814395	0.9954436823580192
102	10.474180621080214	7.779410964831738	-2.206683644107216	-0.9710273110966819	-0.7901550110279048	0.12073510236425943	1.063426227876389	1.0452158664759201
103	10.5034599928259	7.819075731967414	-2.208705597495595	-1.0098694395911623	-0.7705132414605778	0.17366414837392785	1.0771186476928412	1.094988050593821
104	10.533956194882792	7.860214591967935	-2.211746210060118	-1.0477149488717408	-0.7501110683490897	0.22727469602372033	1.0820487757775983	1.1447602347117218
105	10.565688591610172	7.902750101498284	-2.215904856831488	-1.0845264899899003	-0.7289686261751182	0.28113062691627216	1.0778801863572536	1.1945324188296227
106	10.598683753102963	7.946596639762477	-2.221280051940723	-1.1202677343988667	-0.7071067799765315	0.3347790780086827	1.0645762174363425	1.2443046029475235
107	10.632975538897206	7.991660016696608	-2.227968599185684	-1.1549034098054995	-0.6845471047561162	0.38776536151046276	1.042387361641198	1.2940767870654244
108	10.66860501719264	8.037837082902982	-2.2360645534448613	-1.188399334979787	-0.6613118641896529	0.43964725719624137	-0.7923746957389608	1.3438489711833252
109	10.705620194166144	8.085015348424276	-2.2456579401379977	-1.2207224534875927	-0.6374239886543573	0.40020903794955615	-2.1874801045315926	1.393621155301226
110	10.744075525652276	8.133072623427509	-2.254521061638185	-1.2518408663133658	-0.6129070525993654	0.2913333754325647	0.8207616883102309	1.443393339419127
111	10.783871338183273	8.181911400583333	-2.260963708050759	-1.2817238633406172	-0.5877852512805986	0.3321844773000607	0.8538600738904959	1.4931655235370278
112	10.824944706830081	8.231660063313328	-2.2685523019147107	-1.310341953659098	-0.562083376882968	0.37468295810866287	0.8379164304638859	1.5429377076549287
113	10.867290409257691	8.28216423105566	-2.277396401547798	-1.3376668946687662	-0.5358267940534803	0.41638788896112566	0.8168559470726273	1.5927098917728295
114	10.910945023702523	8.333303956767278	-2.287549570571362	-1.3636717199518251	-0.5090414148693932	0.45704459355662674	0.7908587584161832	1.6424820758907304
115	10.955948078042178	8.384952062972431	-2.299059256051535	-1.3883307658853195	-0.4817536732661246	0.4964073612917715	0.13510040320949648	1.6922542600086312
116	11.002341128558118	8.436974215786588	-2.311965438419957	-1.4116196969680344	-0.45399049895014915	0.5031316034347172	-1.4245042077081846	1.742026444126532
117	11.050166659974302	8.489229097602838	-2.3252995981839053	-1.433515529836697	-0.42577929082262916	0.43223091773194094	0.35464949730296313	1.791798628244433
118	11.099318802230068	8.541516191602865	-2.336649630622066	-1.4539966559477817	-0.39714788994000705	0.449882597809025	0.4952645797200588	1.8415708123623338
119	11.149816869218395	8.59402782512372	-2.3487005049223555	-1.4730428629025318	-0.36812455203824423	0.47453299765792656	0.4818597376236836	1.8913429964802346
120	11.201588073653285	8.646580848420188	-2.3616871871779623	-1.4906353543941588	-0.33873791964782085	0.49851620923793594	0.4660727000459757	1.9411151805981355
121	11.25463908553161	8.699052251817326	-2.37561427218532	-1.5067567687575272	-0.3090169938270161	0.5217136654769514	0.4169620298561854	1.9908873647160363
122	11.308973697619493	8.751316477442714	-2.3904797361776287	-1.521391196103021	-0.2789911055413658	0.5424667763971271	-0.4067937065147925	2.040659548833937
123	11.364591976918566	8.803246008159231	-2.406219347329314	-1.5345241940176861	-0.24868988671753947	0.5222197651384696	-0.16044967027874835	2.090431732951838
124	11.42143769127828	8.854670974640692	-2.421376499725836	-1.546142801818146	-0.218143241000207	0.5142338346076992	0.16606965608032614	2.140203917069739
125	11.479478346727499	8.905598771109114	-2.4363675929019513	-1.5562355533412326	-0.18738131424075127	0.5224994841065257	0.15823518206709183	2.1899761011876397
126	11.53863612254933	8.955957414885969	-2.4517491449652846	-1.5647924882597053	-0.15643446474695255	0.5303751947222985	0.14954807289162314	2.2397482853055406
127	11.598867808898794	9.005652955996025	-2.4674982202233555	-1.57180516191189	-0.1253332333230044	0.5378185289407377	0.1386930669964345	2.2895204694234415
