	x	y	theta	v	a	sigma	omega	t
0	11.2437810945274	6.14427860696518	-1.70786250110508	0.0001	1.0	0.18192680566407382	0.01550258026830638	0.08523778834984634
1	11.24377718686103	6.144271125619755	-1.7078619411163112	0.08533779899907434	0.9720618371196256	0.18324821131986033	0.02732865100762977	0.17047557669969268
2	11.240442810459907	6.137887345987505	-1.707380559492721	0.16819420013442182	0.8930591137182531	0.18557764509033553	0.03571187557813747	0.255713365049539
3	11.233882797374196	6.125302249472461	-1.706419460809494	0.2443165838534228	0.8204348536084255	0.1886216463824406	0.04107899196382605	0.34095115339938536
4	11.224387975918786	6.107012169338336	-1.7049999497525752	0.31424863626011923	0.7536413027930562	0.1921231288050777	0.043828119076095164	0.4261889417492317
5	11.212240256448688	6.083469531155505	-1.703139413888615	0.3784873541192816	0.6921835384451774	0.195858940742657	0.04432826801751962	0.511426730099078
6	11.1977115840064	6.0550871797530705	-1.700853883526345	0.43748754806850576	0.6356141757294775	0.19963738426984864	0.042919349985298456	0.5966645184489243
7	11.18106317988227	6.022242252378473	-1.6981597858670974	0.4916658946514843	0.5835285001835199	0.20329573474000737	0.039912559012555957	0.6819023067987706
8	11.16254492551606	5.98527966916462	-1.6950750735857274	0.5414045734462186	0.5355600194462955	0.20669779299761915	0.03559102989876036	0.7671400951486169
9	11.142394818132237	5.944515289272464	-1.691619873490223	0.5870545250324105	0.4913764206935733	0.2097314936712814	0.03021069590491332	0.8523778834984632
10	11.120838473652146	5.900238766293071	-1.6878167729002258	0.6289383643795843	0.45067591644316357	0.2123065865747246	0.024001292812460762	0.9376156718483095
11	11.098088678335435	5.852716127426178	-1.6836908386315617	0.6673529827597302	0.4131839586420337	0.21435240369159445	0.017167473590028983	1.0228534601981558
12	11.074345003090176	5.802192095860445	-1.6792694449531347	0.7025718695760026	0.3786502988995418	0.21581572117196154	0.009890010501498925	1.1080912485480021
13	11.049793498282247	5.748892173333263	-1.6745819717439925	0.7348471836121995	0.34684637124942497	0.2166587237938647	0.00232706931777139	1.1933290368978484
14	11.024606485555344	5.693024499043396	-1.6696594216275968	0.7644116011946624	0.3175629728275555	0.216857078035847	-0.005384455794520567	1.2785668252476947
15	10.998942458991577	5.634781501188042	-1.664533994545531	0.7914799666602784	0.2906082173020011	0.2163981189324533	-0.013127557071234666	1.363804613597541
16	10.972946102497001	5.57434135786819	-1.6592386496286846	0.8162507683793858	0.26580573576666283	0.2152791550012637	-0.020803688710597745	1.4490424019473873
17	10.946748424644111	5.511869284591843	-1.653806677012004	0.8389074614268335	0.2429931000946911	0.21350589458605262	-0.028331315814371583	1.5342801902972336
18	10.920467007008705	5.447518665878496	-1.6482712961858912	0.8596196558631719	0.22202044442132704	0.21109099588499358	-0.03564445097595799	1.61951797864708
19	10.894206357683458	5.381432048410026	-1.6426652924137004	0.8785441875140902	0.2027492614531806	0.20805274171685753	-0.042691194023418005	1.7047557669969262
20	10.868058358313304	5.313742012742663	-1.6370206985450453	0.895826086149919	0.18505135163316208	0.20441383875628644	-0.04943229097422125	1.7899935553467725
21	10.842102790715355	5.2445719398082655	-1.6313685261214712	0.9115994540942746	0.1688079047661992	0.2002003396005771	-0.05583972800507594	1.8752313436966188
22	10.816407927859629	5.174036687344646	-1.6257385469229593	0.9259882665525124	0.1539086954613956	0.1954406846833669	-0.06189537521275714	1.9604691320464651
23	10.79103117357825	5.102243190078387	-1.6201591239670026	0.9391071033614475	0.14025137560009027	0.19016485979114714	-0.06758969326072843	2.0457069203963116
24	10.766019735689756	5.029290996021411	-1.614657089375717	0.9510618204306189	0.12774084892769536	0.18440366382235782	-0.07292051384276138	2.130944708746158
25	10.741411318110078	4.955272749714273	-1.6092576654005462	0.9619501678751439	0.11628871472860991	0.1781880804970663	-0.07789190243727004	2.2161824970960047
26	10.717234818814585	4.880274631725461	-1.6039844241690933	0.9718623607286534	0.10581276932629911	0.17154874700295128	-0.08251310925572347	2.301420285445851
27	10.69351102207141	4.8043767622550515	-1.5988592813265834	0.9808816071651965	0.0962365558147453	0.1645155120601242	-0.0867976117624081	2.3866580737956977
28	10.67025327505986	4.727653575336684	-1.593902518620601	0.989084598341249	0.0874889539448036	0.15711707559944804	-0.09076224978535262	2.4718958621455442
29	10.647468140716166	4.650174168913447	-1.5891328305618728	0.9965419632805428	0.07950380344269352	0.14938070216208849	-0.09442645213809803	2.5571336504953908
30	10.625156020331866	4.5720026349975535	-1.5845673905317792	1.0033186916513965	0.07221955522102932	0.14133200022011472	-0.09781155188364582	2.6423714388452373
31	10.603311741009144	4.493198373216367	-1.580221932051547	1.0094745268140444	0.0655789459567249	0.13299475986248693	-0.10094018591970833	2.727609227195084
32	10.581925104513344	4.413816390295248	-1.5761108413386253	1.0150643311297074	0.05952869236239395	0.12439084165906922	-0.10383577344824309	2.8128470155449303
33	10.560981395332602	4.333907587421881	-1.5722472577197224	1.0201384252100345	0.05401920218054732	0.11554010997874588	-0.10652206709372757	2.898084803894777
34	10.540461846848679	4.253519036963287	-1.5686431789214665	1.0247429025323258	0.04900429949781916	0.10646040456922329	-0.1090227699227498	2.9833225922446234
35	10.520344065442222	4.17269424965029	-1.5653095686990521	1.0289199206411517	0.04444096242587858	0.09716754478123472	-0.11136121135387907	3.06856038059447
36	10.500602413108375	4.091473433087528	-1.5622564646764465	1.0327079699904709	0.04028907154315313	0.08767536141747113	-0.11356007488990189	3.1537981689443164
37	10.481208349758036	4.009893742274139	-1.5594930846493167	1.0361421213434767	0.03651116775302786	0.07799575178901393	-0.11564117071292454	3.239035957294163
38	10.462130736843074	3.9279895227150115	-1.5570279299381873	1.039254252532814	0.03307221840472843	0.06813875415525823	-0.11762524641755201	3.3242737456440095
39	10.443336104288397	3.845792546651269	-1.5548688846717613	1.042073255285455	0.029939390656172897	0.05811263829652152	-0.11953182948334704	3.409511533993856
40	10.424788882958838	3.763332242928796	-1.553023310128412	1.0446252227295285	0.027081831145630668	0.047924009513951246	-0.12137909547491404	3.4947493223437025
41	10.40645160505232	3.680635921044763	-1.5514981334687412	1.0469336181208455	0.0244704510914166	0.037577923863766	-0.12318375638136328	3.579987110693549
42	10.388285074910304	3.5977289899553413	-1.5502999303559837	1.0490194252518004	0.02207771596491773	0.027078012909193674	-0.12496096394700267	3.6652248990433955
43	10.370248512787663	3.5146351722859577	-1.5494350010867775	1.0509012809324658	0.01987743888948595	0.01642661671228771	-0.1267242232873567	3.750462687393242
44	10.352299674141676	3.431376714652687	-1.5489094399454761	1.0525955898614647	0.01784457691244904	0.005624924188922846	-0.1284853125192313	3.8357004757430886
45	10.334394946996593	3.3479745948751227	-1.5487291975539295	1.0541166221315206	0.015955029285058268	-0.005326879685653654	-0.13025420455506515	3.920938264092935
46	10.316489429927925	3.264448726933599	-1.54890013601846	1.0554765935408361	0.014185436870237024	-0.016429460005194206	-0.13203898761868874	4.006176052442782
47	10.298536993199635	3.180818164593937	-1.5494280766793487	1.0566857288064317	0.012512981784649421	-0.027684171285762203	-0.13384578143389553	4.091413840792628
48	10.280490325586928	3.0971013046885094	-1.5503188402479247	1.0577523076994177	0.010915186373708563	-0.03909288967514251	-0.1356786464242513	4.176651629142474
49	10.262300969435984	3.0133160911010264	-1.5515782790743669	1.0586826940453395	0.00936971061945194	-0.050657837422644514	-0.13753948365076174	4.26188941749232
50	10.243919346557277	2.9294802205518553	-1.5532123012273085	1.0594813474560205	0.007854147095595636	-0.06238139881981323	-0.13942792361481612	4.347127205842166
51	10.225294777628521	2.8456113513185044	-1.5552268859857457	1.0601508175838246	0.0063458126157113605	-0.0742659266629493	-0.14134120248159826	4.432364994192012
52	10.20637549790345	2.761727316049455	-1.557628090245823	1.0606917206164714	0.0048215357739815655	-0.08631353816518628	-0.14327402475125398	4.517602782541858
53	10.187108672190476	2.677846339835571	-1.5604220452310127	1.0611026976622964	0.003257439658605012	-0.09852589916296192	-0.14521841194190022	4.602840570891704
54	10.167440412287124	2.593987264687956	-1.5636149427652366	1.0613803546144807	0.0016287191315955717	-0.11090399542456392	-0.14716353747347713	4.68807835924155
55	10.147315800338294	2.510169781529694	-1.5672130102261521	1.0615191830311024	-9.058777784503639e-05	-0.12344788988454022	-0.14909554868094363	4.773316147591396
56	10.126678921935289	2.4264146707356096	-1.5712224731421398	1.0615114615292693	-0.001927834618501284	-0.13615646470690795	-0.15099737776869845	4.858553935941242
57	10.10547291319342	2.3427440521423115	-1.5756495042343468	1.061347137170086	-0.003912007396859046	-0.1490271472345352	-0.15284854457712127	4.9437917242910885
58	10.083640026544325	2.2591816452922977	-1.5805001575384732	1.0610136863115716	-0.00607397126718522	-0.16205561912677893	-0.15462495530015447	5.029029512640935
59	10.061121720558388	2.1757530404616414	-1.5857802860754666	1.0604959544342587	-0.008446722314928375	-0.17523550834025486	-0.15629870280362934	5.114267300990781
60	10.037858779775139	2.092485980740375	-1.5914954413837268	1.0597759745053312	-0.01106564324281543	-0.1885580640891829	-0.15783787597963006	5.199505089340627
61	10.013791471264275	2.009410655076918	-1.597650753088317	1.058832763548648	-0.013968761208323542	-0.20201181555552056	-0.1592063876600354	5.284742877690473
62	9.988859745462687	1.9265600017506956	-1.6042507865790288	1.0576420972372664	-0.01719700541002921	-0.21558221593082674	-0.16036383302116658	5.369980666040319
63	9.963003489723329	1.843970021188717	-1.6112993768169899	1.0561762625298783	-0.020794461280247957	-0.22925127438885146	-0.1612653931456257	5.455218454390165
64	9.936162843952948	1.7616800963811903	-1.6187994363118157	1.0544037886404265	-0.024808617321439894	-0.24299717983794936	-0.161861801449887	5.540456242740011
65	9.908278588680577	1.679733318369617	-1.6267527354364149	1.0522891569679327	-0.029290599743797188	-0.25679392181185584	-0.16209939398957088	5.625694031089857
66	9.879292616848634	1.5981768133736105	-1.6351596535087207	1.0497924910263345	-0.0342953891555605	-0.2706109156483733	-0.1619202681300499	5.710931819439703
67	9.849148501499132	1.517062067092008	-1.6440188995088836	1.046869227904121	-0.039882012679363775	-0.2844126411927889	-0.16126257757633436	5.796169607789549
68	9.817792172266914	1.4364452405715693	-1.6533272019621406	1.0434697733483955	-0.04611370409474724	-0.2981583066489871	-0.16006099508515925	5.881407396139395
69	9.785172714096372	1.3563874708083616	-1.6630789684506058	1.0395391431987442	-0.053058024045412974	-0.3118015518711177	-0.15824737704746808	5.966645184489241
70	9.751243301750542	1.2769551479768526	-1.6732659164713723	1.0350165945749044	-0.06078693213957253	-0.32529020830280403	-0.15575166615652972	6.0518829728390875
71	9.715962283339636	1.1982201599373428	-1.683876678979526	1.0298352509187596	-0.06937680308833728	-0.3385661358577862	-0.15250306909893754	6.137120761188934
72	9.679294425092742	1.1202600935499694	-1.694896389978574	1.0239217256607314	-0.07890838008100211	-0.35156516018433953	-0.14843154506931402	6.22235854953878
73	9.641212327743892	1.0431583814527474	-1.706306257963555	1.0171957498603625	-0.08946666062693313	-0.36421713680739454	-0.14346963729490408	6.307596337888626
74	9.601698022000749	0.9670043825080776	-1.7180831378691401	1.0095698095774814	-0.10114071335725074	-0.37644617138576314	-0.1375546730178146	6.392834126238472
75	9.560744746410279	0.891893384289331	-1.7301991153674752	1.0009487988587888	-0.11402342902492275	-0.3881710274909845	-0.13063134691529815	6.478071914588318
76	9.518358905351391	0.817926517000618	-1.7426211207804478	0.9912296939486441	-0.12821121537855207	-0.3993057545912028	-0.12265468827329223	6.563309702938164
77	9.47456219774028	0.745210570352664	-1.7553105933274358	0.9803012535081361	-0.1438036538371469	-0.4097605689503552	-0.11359339315863695	6.64854749128801
78	9.429393898287156	0.6738577084091011	-1.7682232196470093	0.9680437480984366	-0.16090314594405636	-0.4194430185543494	-0.10343347956677139	6.733785279637856
79	9.382913262880686	0.6039850824918842	-1.781308773145465	0.9543287197996387	-0.17961458921042248	-0.4282594595939479	-0.09218219683342789	6.819023067987702
80	9.335202018164233	0.5357143490395979	-1.7945110822900858	0.9390187694599823	-0.20004513469581542	-0.43611686617725787	-0.07987209198964208	6.904260856337548
81	9.286366883093091	0.4691711078710426	-1.8077681559737024	0.9219673646083705	-0.22230409174074686	-0.4429249866493293	-0.06656510752233405	6.989498644687394
82	9.236542057968006	0.4044842864613679	-1.8210124920022899	0.9030186554872748	-0.24650305757997149	-0.4485988491958022	-0.052356560301959745	7.07473643303724
83	9.185891605136238	0.34178550720024015	-1.8341715901115678	0.8820072800376902	-0.27275635978042434	-0.4530616066015465	-0.037378834038667576	7.1599742213870865
84	9.134611636488085	0.28120848651511915	-1.8471686833311511	0.8587581311716594	-0.3011819060618457	-0.456247695746099	-0.021804611633199925	7.245212009736933
85	9.082932217471662	0.22288852628017308	-1.8599236908167267	0.8330860516079645	-0.3319025375956564	-0.45810627261754144	-0.0058494830746039965	7.330449798086779
86	9.031118897058803	0.16696216793503818	-1.8723543815736343	0.8047954133556173	-0.36504797713052867	-0.4586048696178122	0.010226207979402694	7.415687586436625
87	8.979473779230998	0.11356708691892409	-1.884377722243523	0.7736795311434347	-0.40075745159585935	-0.45773321026644465	0.02611636899775581	7.500925374786471
88	8.928336065052152	0.06284230812501063	-1.8959113640999377	0.7395198523046923	-0.4391830503187799	-0.45550710873335015	0.041469040139366725	7.586163163136317
89	8.87808201556754	0.01492882107925994	-1.9068752056490736	0.70208486041479	-0.4804938557536008	-0.45197237946688273	0.05588710005668643	7.671400951486163
90	8.829124314072148	-0.030029334091519387	-1.9171929489319952	0.6611286268346733	-0.5248808557395029	-0.44720868666076774	0.06892966009912313	7.756638739836009
91	8.781910840150855	-0.07188345194448768	-1.9267935508480933	0.6163889435442743	-0.5725626176311164	-0.44133327488221563	0.08011393296787327	7.841876528185855
92	8.736922904611212	-0.11047797782137911	-1.9356124562647021	0.5675849723256107	-0.6237916784181855	-0.4345045404200302	0.08891730105628785	7.927114316535701
93	8.694673030205028	-0.14564773424459268	-1.9435924873805965	0.514414349266218	-0.6788615841877861	-0.42692542633195874	0.09477927781887137	8.012352104885547
94	8.655702393053215	-0.17721455645062664	-1.950684252899029	0.4565496892343908	-0.7381144991593199	-0.4188466503092863	0.09710306128315087	8.097589893235394
95	8.62057805823255	-0.20498335095609585	-1.9568459291010085	0.39363444177710916	-0.801949299815784	-0.41056980012351435	0.0952564254307939	8.182827681585241
96	8.5898901434494	-0.22873759741433466	-1.962042249846694	0.32527805709211793	-0.8708300724525911	-0.4024503530936843	0.0885717777516382	8.268065469935088
97	8.564249019403217	-0.24823430682094513	-1.96624251978125	0.2510504276877373	-0.9452949399374543	-0.3949006906479227	0.07634531490898638	8.353303258284935
98	8.544282594895746	-0.2631984230014264	-1.9694174295376905	0.1704755776691832	-1.0	-0.3883931848542095	0.05783530707547368	8.438541046634782
99	8.530633626619984	-0.2733166031764915	-1.9715343974993471	0.0852377891067797	-1.0	-0.3834634311905623	0.032449811301254496	8.523778834984629
100	8.52377883498464	-0.27836121399162256	-1.9725781844427088	0.0	0.0	-0.38069748104287376	0.0	8.609016623334476
101	8.52377883498464	-0.27836121399162256	-1.9725781844427088	0.0	-0.5432505980151288	-0.06690969390194637	-0.009885100036141669	8.756754565680824
102	8.523778836376794	-0.2783612129707882	-1.9725781844074846	-0.08025873549508658	-0.4693245906203309	-0.0683700982411737	-0.01631205294704453	8.904492508027172
103	8.53499025966476	-0.2701401004583965	-1.9722882039679526	-0.14959578480587934	-0.40554703324688857	-0.07078000737901465	-0.019985159772717555	9.05223045037352
104	8.555874803911005	-0.2548105544164377	-1.9717285899122656	-0.20951046902244297	-0.3505015453178299	-0.0737325737612988	-0.021503456097769744	9.199968392719867
105	8.58508966943186	-0.23332500544912688	-1.9709120349200058	-0.26129284611691617	-0.3029777265144457	-0.07690945011851817	-0.021370251530096612	9.347706335066215
106	8.62146311027765	-0.20649938554704478	-1.9698496138123882	-0.3060541520089363	-0.2619407677585409	-0.08006664710699837	-0.020003640002510186	9.495444277412563
107	8.663972924256482	-0.17503313431325454	-1.968553894351578	-0.3447527420542067	-0.22650551706354355	-0.08302194372040617	-0.017747109904486188	9.643182219758911
108	8.711727874939541	-0.13952621566048062	-1.9670402239859994	-0.3782162010752707	-0.195914410252153	-0.08564386522028927	-0.014879711874298799	9.790920162105259
109	8.763951729969678	-0.10049363878603845	-1.9653269337589436	-0.4071601929219222	-0.1695187347135202	-0.08784216323530454	-0.011625477943675156	9.938658104451607
110	8.819969519159635	-0.05837784277700677	-1.9634349475983213	-0.4322045419776539	-0.14676275401109695	-0.0895596874254958	-0.008161945648834339	10.086396046797955
111	8.879195637407054	-0.013559232394062194	-1.9613871100089653	-0.4538869692683361	-0.12717027911828802	-0.09076551648119717	-0.004627743654356535	10.234133989144302
112	8.941123476149293	0.033634889533595294	-1.9592074256613465	-0.4726748446328819	-0.11033332644952043	-0.09144920980639804	-0.001129258167354391	10.38187193149065
113	9.00531633168485	0.08292277676956261	-1.9569203241557198	-0.4889752632547608	-0.09590255266854786	-0.09161604408442064	0.0022535648309865274	10.529609873836998
114	9.071399395995874	0.13406188898289825	-1.954550010459274	-0.503143709051773	-0.0835792011033782	-0.09128310705334644	0.005462208097780217	10.677347816183346
115	9.139052681617393	0.1868435653213145	-1.9521199276584886	-0.515491528245736	-0.07310833447482658	-0.09047613166831268	0.008455281224316269	10.825085758529694
116	9.208004766744905	0.24108857297825897	-1.9496523377135275	-0.5262924031494134	-0.06427316378129115	-0.08922696581827233	0.011204845741322546	10.972823700876042
117	9.278027271958154	0.2966434017725064	-1.9471680136140292	-0.5357879881145489	-0.056890313933113085	-0.0875715849641409	0.013693286769144879	11.12056164322239
118	9.348929997877393	0.35337719492852415	-1.9446860297650403	-0.5441928460344623	-0.05080589351833425	-0.08554856695290876	0.01591065466193733	11.268299585568737
119	9.420556665805433	0.4111792239996889	-1.9422236345343076	-0.5516988042019259	-0.04589225935621596	-0.08319795957177056	0.017852404770188398	11.416037527915085
120	9.492781212617626	0.469956832012724	-1.9397961882627444	-0.558478832168835	-0.042045386707466416	-0.0805604820250885	0.019517468252424803	11.563775470261433
121	9.56550459810845	0.5296337833573289	-1.9374171507213793	-0.5646905310861493	-0.039182773601202155	-0.07767701142566474	0.020906591413973986	11.711513412607781
122	9.638652088593393	0.5901489717434392	-1.935098103345046	-0.5704793134334101	-0.03724182313092118	-0.074588314628688	0.022020885079983354	11.859251354954129
123	9.712170985412724	0.6514554488331656	-1.9328487931551435	-0.5759813437519951	-0.03617866116605699	-0.07133499437832537	0.022860528831339044	12.006989297300477
124	9.786028771485444	0.7135197461198901	-1.9306771868161035	-0.58132630470951	-0.03596735910088109	-0.06795762688783341	0.023423577385429845	12.154727239646824
125	9.86021165345406	0.7763214715055141	-1.9285895245628946	-0.5866400483347021	-0.03659954237757916	-0.06449707576251892	0.023704817835142132	12.302465181993172
